Retention Time (min),Signal (arb. units)
0,1.51380365354398e-32
0.005,1.89466177568028e-32
0.01,2.37057171505353e-32
0.015,2.9650618941286e-32
0.02,3.7074362256965e-32
0.025,4.63417975140842e-32
0.03,5.79070341217414e-32
0.035,7.23350904487672e-32
0.04,9.03287491547667e-32
0.045,1.12761858251401e-31
0.05,1.40720611124243e-31
0.055,1.7555470011201e-31
0.06,2.18940683978798e-31
0.065,2.72960459236567e-31
0.07,3.40198402757087e-31
0.075,4.23861587912534e-31
0.08,5.27928504778482e-31
0.085,6.57332981136397e-31
0.09,8.18191559630788e-31
0.095,1.01808450433902e-30
0.1,1.26640296920748e-30
0.105,1.57477776183427e-30
0.11,1.95760870214996e-30
0.115,2.43271795761e-30
0.12,3.02215611942859e-30
0.125,3.75319639446603e-30
0.13,4.65956040159584e-30
0.135,5.78292901856035e-30
0.14,7.17480393984401e-30
0.145,8.89880058454459e-30
0.15,1.10334713546874e-29
0.155,1.36757807452298e-29
0.16,1.69453813707819e-29
0.165,2.09898737284089e-29
0.17,2.59912738368432e-29
0.175,3.21739634587672e-29
0.18,3.98144594717202e-29
0.185,4.92534146004363e-29
0.19,6.09103542004293e-29
0.195,7.53017667945941e-29
0.2,9.30633041236718e-29
0.205,1.14977015070455e-28
0.21,1.42004743641259e-28
0.215,1.75329072368124e-28
0.22,2.16403498920472e-28
0.225,2.67013907406783e-28
0.23,3.29353851414222e-28
0.235,4.06116721023068e-28
0.24,5.00608542394569e-28
0.245,6.16885982225711e-28
0.25,7.59925132139447e-28
0.255,9.35827868444348e-28
0.26,1.15207406735408e-27
0.265,1.4178297613136e-27
0.27,1.74432351713626e-27
0.275,2.14530598431211e-27
0.28,2.63761080272787e-27
0.285,3.24183899495323e-27
0.29,3.9831937465895e-27
0.295,4.89249827724476e-27
0.3,6.0074365400868e-27
0.305,7.37406502024835e-27
0.31,9.04865424651938e-27
0.315,1.10999311671545e-26
0.32,1.36118087285513e-26
0.325,1.66867073894529e-26
0.33,2.04495955721711e-26
0.335,2.50529030030511e-26
0.34,3.06824935000001e-26
0.345,3.75649231981428e-26
0.35,4.59762578786869e-26
0.355,5.62527806829395e-26
0.36,6.8803991102522e-26
0.365,8.41283802049411e-26
0.37,1.0283256854873e-25
0.375,1.25654515734225e-25
0.38,1.53491658316829e-25
0.385,1.87435011038033e-25
0.39,2.28810481203986e-25
0.395,2.79228905006033e-25
0.4,3.40646626570818e-25
0.405,4.15438816276192e-25
0.41,5.06488177243935e-25
0.415,6.17292233356828e-25
0.42,7.52093047152424e-25
0.425,9.16034003698212e-25
0.43,1.11534924362487e-24
0.435,1.35759246670943e-24
0.44,1.65191319485704e-24
0.445,2.00939022562424e-24
0.45,2.44343397910392e-24
0.455,2.97027180728821e-24
0.46,3.60953317392227e-24
0.465,4.38495501755647e-24
0.47,5.32523169232919e-24
0.475,6.46503877291846e-24
0.48,7.84626587080291e-24
0.485,9.51950062786171e-24
0.49,1.15458144563611e-23
0.495,1.39989106509197e-23
0.5,1.69677075292868e-23
0.505,2.05594436473845e-23
0.51,2.49034093359142e-23
0.515,3.0155429363708e-23
0.52,3.65032460930425e-23
0.525,4.41729818231078e-23
0.53,5.34368940342228e-23
0.535,6.46226790344927e-23
0.54,7.8124629364866e-23
0.545,9.44170097734622e-23
0.55,1.14070087449548e-22
0.555,1.37769336677103e-22
0.56,1.66338438697692e-22
0.565,2.00766817411836e-22
0.57,2.42242594213718e-22
0.575,2.92192015033921e-22
0.58,3.52326604640597e-22
0.585,4.24699543441496e-22
0.59,5.11773047567991e-22
0.595,6.16498872348306e-22
0.6,7.42414462380305e-22
0.605,8.93757750112001e-22
0.61,1.07560417310551e-21
0.615,1.29403015451809e-21
0.62,1.55630809130511e-21
0.625,1.87113884329588e-21
0.63,2.24892884084665e-21
0.635,2.70212026138182e-21
0.64,3.24558430372652e-21
0.645,3.89708945845232e-21
0.65,4.67785888526237e-21
0.655,5.61323362691486e-21
0.66,6.73346148659622e-21
0.665,8.07463505830532e-21
0.67,9.67980672930801e-21
0.675,1.16003135896556e-20
0.68,1.38973512268365e-20
0.685,1.66438425193238e-20
0.69,1.99266559656499e-20
0.695,2.38492380243184e-20
0.7,2.85347356629759e-20
0.705,3.41296991382506e-20
0.71,4.080847132086e-20
0.715,4.87783890785608e-20
0.72,5.8285944842058e-20
0.725,6.96240831039152e-20
0.73,8.31408379385781e-20
0.735,9.92495545039247e-20
0.74,1.18440980853239e-19
0.745,1.41297567377181e-19
0.75,1.68510371126677e-19
0.755,2.00899032681775e-19
0.76,2.39435375932674e-19
0.765,2.85271278236205e-19
0.77,3.39771572369469e-19
0.775,4.04552875401723e-19
0.78,4.81529396409884e-19
0.785,5.72966958798377e-19
0.79,6.81546688433542e-19
0.795,8.10440071211614e-19
0.8,9.63397379281942e-19
0.805,1.14485181121021e-18
0.81,1.36004209635813e-18
0.815,1.61515678754001e-18
0.82,1.91750402007888e-18
0.825,2.27571116309292e-18
0.83,2.69995954575323e-18
0.835,3.2022603254567e-18
0.84,3.7967785973891e-18
0.845,4.50021405025933e-18
0.85,5.33224787946813e-18
0.855,6.31606730961944e-18
0.86,7.47898099138218e-18
0.865,8.85314076770091e-18
0.87,1.0476387902789e-17
0.875,1.23932448939904e-17
0.88,1.4656077510763e-17
0.885,1.73264558070021e-17
0.89,2.04767476257002e-17
0.895,2.41919836661892e-17
0.9,2.85720396385915e-17
0.905,3.37341885317925e-17
0.91,3.98160847370222e-17
0.915,4.69792518917992e-17
0.92,5.54131580613618e-17
0.925,6.53399755141924e-17
0.93,7.70201381720875e-17
0.935,9.07588281665484e-17
0.94,1.0691354420804e-16
0.945,1.25902929129543e-16
0.95,1.48217062527435e-16
0.955,1.74429457498044e-16
0.96,2.05211038756446e-16
0.965,2.41346423730699e-16
0.97,2.83752879476915e-16
0.975,3.33502387525296e-16
0.98,3.91847317272388e-16
0.985,4.60250287691424e-16
0.99,5.40418888563974e-16
0.995,6.343460380062e-16
1,7.44356874913776e-16
1.005,8.73163225539799e-16
1.01,1.02392684557232e-15
1.015,1.20033282602967e-15
1.02,1.40667476675724e-15
1.025,1.64795356954451e-15
1.03,1.92999198876541e-15
1.035,2.25956740656679e-15
1.04,2.64456567838691e-15
1.045,3.09415933030569e-15
1.05,3.61901389078782e-15
1.055,4.23152671536869e-15
1.06,4.94610332470514e-15
1.065,5.77947703669916e-15
1.07,6.75107854640304e-15
1.075,7.8834631094749e-15
1.08,9.20280413472139e-15
1.085,1.07394633100225e-14
1.09,1.25286488979536e-14
1.095,1.46111755703895e-14
1.1,1.70343411368211e-14
1.105,1.98529377949887e-14
1.11,2.3130418135663e-14
1.115,2.69402391125567e-14
1.12,3.13674105964712e-14
1.125,3.65102790301416e-14
1.13,4.2482581155437e-14
1.135,4.94158078755111e-14
1.14,5.74619241297139e-14
1.145,6.67964972991536e-14
1.15,7.76222942398194e-14
1.155,9.01734156877459e-14
1.16,1.04720046643664e-13
1.165,1.21573912589615e-13
1.17,1.41094544205823e-13
1.175,1.63696467856755e-13
1.18,1.89857455742932e-13
1.185,2.20127988543912e-13
1.19,2.55142104918446e-13
1.195,2.95629836730907e-13
1.2,3.42431456735883e-13
1.205,3.9651379712356e-13
1.21,4.58988933314428e-13
1.215,5.31135568264826e-13
1.22,6.14423498951214e-13
1.225,7.1054159936985e-13
1.23,8.21429814141819e-13
1.235,9.49315724578502e-13
1.24,1.09675632588395e-12
1.245,1.26668574122618e-12
1.25,1.46246969702311e-12
1.255,1.68796769545446e-12
1.26,1.94760394660552e-12
1.265,2.24644826566144e-12
1.27,2.59030830232344e-12
1.275,2.98583465249662e-12
1.28,3.44064060898237e-12
1.285,3.96343854140514e-12
1.29,4.5641951592898e-12
1.295,5.25430820987116e-12
1.3,6.04680749810847e-12
1.305,6.95658349525902e-12
1.31,8.00064722956951e-12
1.315,9.19842563415173e-12
1.32,1.05720970696081e-11
1.325,1.2146972349952e-11
1.33,1.3951927288206e-11
1.335,1.60198935521181e-11
1.34,1.83884154911857e-11
1.345,2.11002815753115e-11
1.35,2.42042401859882e-11
1.355,2.77558107375159e-11
1.36,3.18182024946336e-11
1.365,3.64633550122657e-11
1.37,4.17731158730471e-11
1.375,4.78405733614389e-11
1.38,5.47715639146921e-11
1.385,6.2686376658583e-11
1.39,7.17216801008627e-11
1.395,8.20326991523112e-11
1.4,9.37956741126297e-11
1.405,1.07210637138953e-10
1.41,1.22504546055925e-10
1.415,1.39934820220915e-10
1.42,1.59793328584521e-10
1.425,1.82410886150041e-10
1.43,2.08162321808076e-10
1.435,2.37472188083797e-10
1.44,2.70821191773079e-10
1.445,3.08753433857746e-10
1.45,3.51884557588028e-10
1.455,4.00910915322084e-10
1.46,4.56619877750955e-10
1.465,5.19901423659189e-10
1.47,5.9176116453908e-10
1.475,6.73334976369069e-10
1.48,7.65905430882055e-10
1.485,8.70920240905945e-10
1.49,9.90012959096801e-10
1.495,1.12502619687079e-09
1.5,1.27803766086673e-09
1.505,1.4513893381588e-09
1.51,1.6477201990445e-09
1.515,1.87000282794543e-09
1.52,2.12158443920875e-09
1.525,2.40623278585698e-09
1.53,2.72818752612226e-09
1.535,3.09221767548852e-09
1.54,3.50368584157745e-09
1.545,3.96862001623807e-09
1.55,4.49379378438959e-09
1.555,5.08681590334828e-09
1.56,5.7562303104478e-09
1.565,6.51162773172892e-09
1.57,7.36377019141615e-09
1.575,8.3247298620029e-09
1.58,9.40804384933088e-09
1.585,1.06288866774988e-08
1.59,1.20042624263152e-08
1.595,1.35532186810227e-08
1.6,1.5297084682009e-08
1.605,1.725973631321e-08
1.61,1.94678908440971e-08
1.615,2.19514346439258e-08
1.62,2.47437874209218e-08
1.625,2.78823069061377e-08
1.63,3.14087383049211e-08
1.635,3.53697132816793e-08
1.64,3.98173037295372e-08
1.645,4.48096361095823e-08
1.65,5.04115727289673e-08
1.655,5.66954669678889e-08
1.66,6.37420001675004e-08
1.665,7.16411086596227e-08
1.67,8.04930102606992e-08
1.675,9.0409340473284e-08
1.68,1.01514409645423e-07
1.685,1.13946593439258e-07
1.69,1.27859870163153e-07
1.695,1.43425519835574e-07
1.7,1.60834001283399e-07
1.705,1.8029702514255e-07
1.71,2.02049842336208e-07
1.715,2.26353769467103e-07
1.72,2.53498974588786e-07
1.725,2.83807549030082e-07
1.73,3.17636893352235e-07
1.735,3.55383448135933e-07
1.74,3.97486803142426e-07
1.745,4.44434221488572e-07
1.75,4.96765618839423e-07
1.755,5.55079041275841e-07
1.76,6.20036689461568e-07
1.765,6.92371541038863e-07
1.77,7.72894627851114e-07
1.775,8.62503029652846e-07
1.78,9.62188651452823e-07
1.785,1.07304785757733e-06
1.79,1.19629204197224e-06
1.795,1.33325922122225e-06
1.8,1.48542674429232e-06
1.805,1.65442522113315e-06
1.81,1.84205378108347e-06
1.815,2.0502967814962e-06
1.82,2.28134209726286e-06
1.825,2.53760113296687e-06
1.83,2.82173071131724e-06
1.835,3.13665700436387e-06
1.84,3.48560168783607e-06
1.845,3.87211051384827e-06
1.85,4.30008451325411e-06
1.855,4.77381405617804e-06
1.86,5.29801601779692e-06
1.865,5.87787431636643e-06
1.87,6.51908411188314e-06
1.875,7.22789997673625e-06
1.88,8.01118837433816e-06
1.885,8.87648480813608e-06
1.89,9.83205603171038e-06
1.895,1.08869677409802e-05
1.9,1.20511582019868e-05
1.905,1.33355183024397e-05
1.91,1.47519785523349e-05
1.915,1.63136035986205e-05
1.92,1.8034694861257e-05
1.925,1.9930901943248e-05
1.93,2.20193435154661e-05
1.935,2.43187384285506e-05
1.94,2.68495478589739e-05
1.945,2.9634129354763e-05
1.95,3.26969037085083e-05
1.955,3.60645356513957e-05
1.96,3.97661294322817e-05
1.965,4.38334404204907e-05
1.97,4.83011039503033e-05
1.975,5.32068827092277e-05
1.98,5.85919340613657e-05
1.985,6.45010987917434e-05
1.99,7.09832128576163e-05
1.995,7.80914438387637e-05
2,8.58836538909113e-05
2.005,9.44227911249332e-05
2.01,0.000103777311459702
2.015,0.000114021633128608
2.02,0.000125236626159206
2.025,0.000137510139292423
2.03,0.0001509375669626
2.035,0.000165622459122643
2.04,0.000181677176870004
2.045,0.000199223597009461
2.05,0.000218393868877969
2.055,0.000239331226955523
2.06,0.000262190862994422
2.065,0.000287140861617615
2.07,0.000314363203565526
2.075,0.000344054841009969
2.08,0.000376428849603838
2.085,0.000411715662196507
2.09,0.000450164389417462
2.095,0.000492044232614909
2.1,0.000537645994932264
2.105,0.000587283696613503
2.11,0.000641296300948915
2.115,0.000700049557605568
2.12,0.000763937970432271
2.125,0.000833386897186961
2.13,0.000908854789005219
2.135,0.000990835577812393
2.14,0.0010798612202782
2.145,0.00117650440732188
2.15,0.00128138144859785
2.155,0.00139515534182634
2.16,0.00151853903727988
2.165,0.00165229890819574
2.17,0.0017972584383547
2.175,0.00195430213854839
2.18,0.00212437970415057
2.185,0.00230851042651061
2.19,0.00250778787140069
2.195,0.00272338483826987
2.2,0.00295655861458889
2.205,0.00320865654010668
2.21,0.00348112189638411
2.215,0.00377550013751914
2.22,0.00409344547853115
2.225,0.00443672785842818
2.23,0.00480724029553776
2.235,0.00520700665323909
2.24,0.00563818983478899
2.245,0.00610310042648486
2.25,0.00660420580895293
2.255,0.00714413975688676
2.26,0.0077257125480873
2.265,0.00835192160317007
2.27,0.00902596267780228
2.275,0.00975124162981336
2.28,0.0105313867839812
2.285,0.01137026191773
2.29,0.0122719798913841
2.295,0.0132409169469972
2.3,0.0142817277001171
2.305,0.015399360849151
2.31,0.0165990756272548
2.315,0.0178864590218856
2.32,0.019267443787318
2.325,0.0207483272755339
2.33,0.0223357911109442
2.335,0.0240369217343802
2.34,0.0258592318417102
2.345,0.0278106827422728
2.35,0.0298997076620765
2.355,0.0321352360163904
2.36,0.034526718675929
2.365,0.0370841542503225
2.37,0.039818116411947
2.375,0.04273978228246
2.38,0.0458609619035523
2.385,0.0491941288124657
2.39,0.0527524517417397
2.395,0.0565498274614385
2.4,0.0606009147807466
2.405,0.0649211697243335
2.41,0.06952688189723
2.415,0.0744352120501594
2.42,0.0796642308553052
2.425,0.0852329589003573
2.43,0.0911614079063812
2.435,0.0974706231725729
2.44,0.104182727248293
2.445,0.111320964829929
2.45,0.11890974887709
2.455,0.126974707939392
2.46,0.135542734681668
2.465,0.144642035591789
2.47,0.154302181851417
2.475,0.164554161346006
2.48,0.175430431786031
2.485,0.186964974907016
2.49,0.199193351711205
2.495,0.212152758708817
2.5,0.225882085111748
2.505,0.240421970927217
2.51,0.255814865893361
2.515,0.27210508919303
2.52,0.289338889876098
2.525,0.307564507914493
2.53,0.326832235807808
2.535,0.34719448065087
2.54,0.368705826567952
2.545,0.391423097411486
2.55,0.415405419616123
2.555,0.440714285091844
2.56,0.467413614032562
2.565,0.495569817509245
2.57,0.525251859709115
2.575,0.556531319674869
2.58,0.589482452390231
2.585,0.624182249050452
2.59,0.660710496348597
2.595,0.699149834600771
2.6,0.73958581452567
2.605,0.782106952486137
2.61,0.826804783992831
2.615,0.873773915262503
2.62,0.923112072616004
2.625,0.974920149493853
2.63,1.02930225086006
2.635,1.0863657347581
2.64,1.14622125077612
2.645,1.20898277517225
2.65,1.27476764240473
2.655,1.34369657280578
2.66,1.41589369613294
2.665,1.49148657072652
2.67,1.57060619799737
2.675,1.65338703196532
2.68,1.73996698356485
2.685,1.83048741943209
2.69,1.9250931548846
2.695,2.0239324408039
2.7,2.12715694412986
2.705,2.23492172167559
2.71,2.34738518697217
2.715,2.46470906985398
2.72,2.58705836849724
2.725,2.71460129362783
2.73,2.84750920461801
2.735,2.98595653719685
2.74,3.13012072250493
2.745,3.2801820972307
2.75,3.43632380457382
2.755,3.59873168578991
2.76,3.76759416208093
2.765,3.94310210660667
2.77,4.12544870640538
2.775,4.3148293140244
2.78,4.51144128867691
2.785,4.71548382675608
2.79,4.92715778155533
2.795,5.14666547206104
2.8,5.37421048070373
2.805,5.60999743997392
2.81,5.85423180783066
2.815,6.10711963185337
2.82,6.36886730211158
2.825,6.6396812927524
2.83,6.91976789233116
2.835,7.20933292293844
2.84,7.50858144820452
2.845,7.81771747029149
2.85,8.13694361601365
2.855,8.46646081225753
2.86,8.80646795090488
2.865,9.15716154349461
2.87,9.51873536589286
2.875,9.89138009327452
2.88,10.2752829257539
2.885,10.6706272050375
2.89,11.0775920225065
2.895,11.4963518191738
2.9,11.9270759779949
2.905,12.3699284090478
2.91,12.8250671281356
2.915,13.2926438293979
2.92,13.7728034525559
2.925,14.2656837454498
2.93,14.7714148225618
2.935,15.2901187202559
2.94,15.8219089494927
2.945,16.3668900468188
2.95,16.925157124455
2.955,17.4967954203429
2.96,18.0818798490379
2.965,18.6804745543659
2.97,19.2926324647848
2.975,19.9183948524238
2.98,20.5577908967897
2.985,21.2108372541571
2.99,21.8775376336772
2.995,22.5578823812566
3,23.2518480722759
3.005,23.9593971142294
3.01,24.6804773603783
3.015,25.4150217355192
3.02,26.1629478749745
3.025,26.9241577779151
3.03,27.6985374761252
3.035,28.4859567193175
3.04,29.2862686780998
3.045,30.0993096656877
3.05,30.9248988794431
3.055,31.7628381633056
3.06,32.6129117921659
3.065,33.4748862792048
3.07,34.348510207204
3.075,35.2335140847971
3.08,36.1296102286083
3.085,37.0364926721815
3.09,37.9538371025735
3.095,38.8813008254359
3.1,39.8185227593722
3.105,40.7651234603047
3.11,41.7207051765365
3.115,42.6848519351415
3.12,43.6571296602542
3.125,44.6370863237783
3.13,45.624252128963
3.135,46.6181397272377
3.14,47.6182444686229
3.145,48.6240446859699
3.15,49.6350020132056
3.155,50.6505617376883
3.16,51.6701531867015
3.165,52.6931901480372
3.17,53.7190713245396
3.175,54.7471808224016
3.18,55.7768886729211
3.185,56.8075513873487
3.19,57.8385125443663
3.195,58.869103409662
3.2,59.8986435869761
3.205,60.9264416999141
3.21,61.951796103736
3.215,62.9739956262525
3.22,63.9923203368739
3.225,65.0060423427779
3.23,66.0144266110841
3.235,67.0167318158447
3.24,68.0122112085842
3.245,69.0001135110497
3.25,69.9796838287592
3.255,70.9501645838682
3.26,71.9107964658105
3.265,72.8608193981015
3.27,73.7994735196392
3.275,74.7260001787762
3.28,75.6396429383889
3.285,76.539648590117
3.29,77.4252681759069
3.295,78.2957580149489
3.3,79.1503807340657
3.305,79.988406299577
3.31,80.8091130486399
3.315,81.6117887180446
3.32,82.395731468427
3.325,83.1602509018522
3.33,83.9046690707123
3.335,84.628321475888
3.34,85.3305580521233
3.345,86.0107441385746
3.35,86.6682614325144
3.355,87.302508924185
3.36,87.9129038108305
3.365,88.4988823879624
3.37,89.0599009159556
3.375,89.5954364601104
3.38,90.1049877023656
3.385,90.5880757229018
3.39,91.0442447499278
3.395,91.4730628760096
3.4,91.8741227393659
3.405,92.2470421686251
3.41,92.5914647896183
3.415,92.907060592856
3.42,93.1935264604278
3.425,93.4505866511444
3.43,93.6779932428364
3.435,93.8755265308168
3.44,94.0429953816106
3.445,94.1802375411539
3.45,94.2871198967674
3.455,94.3635386923118
3.46,94.4094196960389
3.465,94.4247183207568
3.47,94.4094196960389
3.475,94.3635386923118
3.48,94.2871198967674
3.485,94.1802375411539
3.49,94.0429953816106
3.495,93.8755265308168
3.5,93.6779932428364
3.505,93.4505866511444
3.51,93.1935264604278
3.515,92.907060592856
3.52,92.5914647896183
3.525,92.2470421686251
3.53,91.8741227393659
3.535,91.4730628760096
3.54,91.0442447499278
3.545,90.5880757229018
3.55,90.1049877023656
3.555,89.5954364601104
3.56,89.0599009159556
3.565,88.4988823879624
3.57,87.9129038108305
3.575,87.302508924185
3.58,86.6682614325144
3.585,86.0107441385746
3.59,85.3305580521233
3.595,84.628321475888
3.6,83.9046690707123
3.605,83.1602509018522
3.61,82.395731468427
3.615,81.6117887180446
3.62,80.8091130486399
3.625,79.988406299577
3.63,79.1503807340657
3.635,78.2957580149489
3.64,77.4252681759069
3.645,76.539648590117
3.65,75.6396429383889
3.655,74.7260001787762
3.66,73.7994735196392
3.665,72.8608193981015
3.67,71.9107964658105
3.675,70.9501645838682
3.68,69.9796838287592
3.685,69.0001135110497
3.69,68.0122112085842
3.695,67.0167318158447
3.7,66.0144266110841
3.705,65.0060423427779
3.71,63.9923203368739
3.715,62.9739956262525
3.72,61.951796103736
3.725,60.9264416999141
3.73,59.8986435869761
3.735,58.869103409662
3.74,57.8385125443663
3.745,56.8075513873487
3.75,55.7768886729211
3.755,54.7471808224016
3.76,53.7190713245396
3.765,52.6931901480372
3.77,51.6701531867015
3.775,50.6505617376883
3.78,49.6350020132056
3.785,48.6240446859699
3.79,47.6182444686229
3.795,46.6181397272377
3.8,45.624252128963
3.805,44.6370863237783
3.81,43.6571296602542
3.815,42.6848519351415
3.82,41.7207051765365
3.825,40.7651234603047
3.83,39.8185227593722
3.835,38.8813008254359
3.84,37.9538371025735
3.845,37.0364926721815
3.85,36.1296102286083
3.855,35.2335140847971
3.86,34.348510207204
3.865,33.4748862792048
3.87,32.6129117921659
3.875,31.7628381633056
3.88,30.9248988794431
3.885,30.0993096656877
3.89,29.2862686780998
3.895,28.4859567193175
3.9,27.6985374761252
3.905,26.9241577779151
3.91,26.1629478749745
3.915,25.4150217355192
3.92,24.6804773603783
3.925,23.9593971142294
3.93,23.2518480722759
3.935,22.5578823812566
3.94,21.8775376336772
3.945,21.2108372541571
3.95,20.5577908967897
3.955,19.9183948524238
3.96,19.2926324647848
3.965,18.6804745543659
3.97,18.0818798490379
3.975,17.4967954203429
3.98,16.925157124455
3.985,16.3668900468188
3.99,15.8219089494927
3.995,15.2901187202559
4,14.7714148225618
4.005,14.2656837454498
4.01,13.7728034525559
4.015,13.2926438293979
4.02,12.8250671281356
4.025,12.3699284090478
4.03,11.9270759779949
4.035,11.4963518191738
4.04,11.0775920225065
