Retention Time (min),Signal (arb. units)
0,4.436738210796e-66
0.005,5.51051393593993e-66
0.01,6.84312870849015e-66
0.015,8.49672601511991e-66
0.02,1.05483084884416e-65
0.025,1.30932763066798e-65
0.03,1.62498046991309e-65
0.035,2.01642587123473e-65
0.04,2.50178899884106e-65
0.045,3.10351178134496e-65
0.05,3.84937676553802e-65
0.055,4.7737727958636e-65
0.06,5.9192593961305e-65
0.065,7.338500050221e-65
0.07,9.0966510048558e-65
0.075,1.12743124710575e-64
0.08,1.39711740696439e-64
0.085,1.73105171427893e-64
0.09,2.14447744835651e-64
0.095,2.65623947736219e-64
0.1,3.28963166024866e-64
0.105,4.07344278756794e-64
0.11,5.04324737846689e-64
0.115,6.24299840994926e-64
0.12,7.72699230144438e-64
0.125,9.56229278580633e-64
0.13,1.18317203712642e-63
0.135,1.46375388031276e-63
0.14,1.81060003327737e-63
0.145,2.23929490014343e-63
0.15,2.76907271528177e-63
0.155,3.42366869734881e-63
0.16,4.23236784445275e-63
0.165,5.23129706456841e-63
0.17,6.46501685340481e-63
0.175,7.98848166040358e-63
0.18,9.86945397229431e-63
0.185,1.21914766674672e-62
0.19,1.50575321812282e-62
0.195,1.85945464874244e-62
0.2,2.29589320915935e-62
0.205,2.83434086723982e-62
0.21,3.49853945746625e-62
0.215,4.31773293452103e-62
0.22,5.32793697266001e-62
0.225,6.57350024334323e-62
0.23,8.10902408582137e-62
0.235,1.00017224767904e-61
0.24,1.23343228402216e-61
0.245,1.52086310941097e-61
0.25,1.87499123587017e-61
0.255,2.31122731158839e-61
0.26,2.84852727381759e-61
0.265,3.51020439440525e-61
0.27,4.32492650208795e-61
0.275,5.32794042019719e-61
0.28,6.56257515891607e-61
0.285,8.08208703895357e-61
0.29,9.9519241770562e-61
0.295,1.22525052184088e-60
0.3,1.50826285722279e-60
0.305,1.85636545695304e-60
0.31,2.28446349853827e-60
0.315,2.81086035586238e-60
0.32,3.45802890968607e-60
0.325,4.25355714241195e-60
0.33,5.23130721958817e-60
0.335,6.43283603815984e-60
0.34,7.90913595520968e-60
0.345,9.72276753479109e-60
0.35,1.19504721941273e-59
0.355,1.46863722405467e-59
0.36,1.80458897560159e-59
0.365,2.21705450698793e-59
0.37,2.72338313369374e-59
0.375,3.34484054401603e-59
0.38,4.10748888124611e-59
0.385,5.04326369510536e-59
0.39,6.19129159788522e-59
0.395,7.59950217573315e-59
0.4,9.32659956344263e-59
0.405,1.14444735623589e-58
0.41,1.40411478388047e-58
0.415,1.72243842830735e-58
0.42,2.11260888871089e-58
0.425,2.59076965484622e-58
0.43,3.1766751290368e-58
0.435,3.89449460387228e-58
0.44,4.77379441859166e-58
0.445,5.85073759743402e-58
0.45,7.16954890182156e-58
0.455,8.78430374203523e-58
0.46,1.07611122029668e-57
0.465,1.31807850411338e-57
0.47,1.61420875128176e-57
0.475,1.97657100331983e-57
0.48,2.41991128401676e-57
0.485,2.96224361337293e-57
0.49,3.62557089069915e-57
0.495,4.43676404870107e-57
0.5,5.42863406188259e-57
0.505,6.64123891291337e-57
0.51,8.12347676830311e-57
0.515,9.93502774018421e-57
0.52,1.21487201397585e-56
0.525,1.48534135765532e-56
0.53,1.81575112531483e-56
0.535,2.21932381085032e-56
0.54,2.7121850997957e-56
0.545,3.31399829849123e-56
0.55,4.04873674174013e-56
0.555,4.94562404209437e-56
0.56,6.04027847566439e-56
0.565,7.3761056094854e-56
0.57,9.00599275789237e-56
0.575,1.09943703663454e-55
0.58,1.34197193924755e-55
0.585,1.63776207090123e-55
0.59,1.9984463125644e-55
0.595,2.43819515846625e-55
0.6,2.97425873585594e-55
0.605,3.62763287929741e-55
0.61,4.42386856592807e-55
0.615,5.39405541588309e-55
0.62,6.57601650538055e-55
0.625,8.01575967065426e-55
0.63,9.76924009168075e-55
0.635,1.19045005895568e-54
0.64,1.45042701787838e-54
0.645,1.76691185036652e-54
0.65,2.15212844829854e-54
0.655,2.62093225466266e-54
0.66,3.19137401874361e-54
0.665,3.88538372784075e-54
0.67,4.72960020566439e-54
0.675,5.75637724679869e-54
0.68,7.00500366523183e-54
0.685,8.52318250881983e-54
0.69,1.03688242155592e-53
0.695,1.26122200057032e-53
0.7,1.53386757314536e-53
0.705,1.86517032445889e-53
0.71,2.26768866971876e-53
0.715,2.75665657919444e-53
0.72,3.35055077277243e-53
0.725,4.07177755062053e-53
0.73,4.94750436591419e-53
0.735,6.01066648697368e-53
0.74,7.30118542608709e-53
0.745,8.86744345563331e-53
0.75,1.07680677599413e-52
0.755,1.30740889103438e-52
0.76,1.58715517948652e-52
0.765,1.92646733572922e-52
0.77,2.33796610745793e-52
0.775,2.8369329715032e-52
0.78,3.44186824015691e-52
0.785,4.17516563529349e-52
0.79,5.06392750929492e-52
0.795,6.14094988505638e-52
0.8,7.44591250630696e-52
0.805,9.02681634367942e-52
0.81,1.09417197435292e-51
0.815,1.32608349387721e-51
0.82,1.60690593287842e-51
0.825,1.94690312174687e-51
0.83,2.35848181024903e-51
0.835,2.85663677686695e-51
0.84,3.45948791170551e-51
0.845,4.18892817745263e-51
0.85,5.07140521780552e-51
0.855,6.13886403359062e-51
0.86,7.42988374243238e-51
0.865,8.99104816914792e-51
0.87,1.08785981102949e-50
0.875,1.31604228527215e-50
0.88,1.5918460232999e-50
0.885,1.92515885988958e-50
0.89,2.32791109515903e-50
0.895,2.81449518793402e-50
0.9,3.40227123251193e-50
0.905,4.11217565844093e-50
0.91,4.96945411908524e-50
0.915,6.00454376992841e-50
0.92,7.25413522354433e-50
0.925,8.76245057489875e-50
0.93,1.05827812218492e-49
0.935,1.27793380055256e-49
0.94,1.5429476756236e-49
0.945,1.86263750031509e-49
0.95,2.24822508100535e-49
0.955,2.71322329377952e-49
0.96,3.27390134088067e-49
0.965,3.94984397810595e-49
0.97,4.76462358912307e-49
0.975,5.7466077532446e-49
0.98,6.9299294727096e-49
0.985,8.35565264188026e-49
0.99,1.00731718309438e-48
0.995,1.21418932323566e-48
1,1.4633252932542e-48
1.005,1.7633139826959e-48
1.01,2.12448038554921e-48
1.015,2.55923462298303e-48
1.02,3.08249074721708e-48
1.025,3.71216920031132e-48
1.03,4.46979954443596e-48
1.035,5.38124336207986e-48
1.04,6.47756115102364e-48
1.045,7.79605173557358e-48
1.05,9.38149833274706e-48
1.055,1.12876621291999e-47
1.06,1.35790722557925e-47
1.065,1.63331706473362e-47
1.07,1.96428817502054e-47
1.075,2.3619690753944e-47
1.08,2.83973304087866e-47
1.085,3.41361960668276e-47
1.09,4.10286319677612e-47
1.095,4.93052597168222e-47
1.1,5.92425532503735e-47
1.105,7.11719043995555e-47
1.11,8.54904706913071e-47
1.115,1.02674153754425e-46
1.12,1.23293124396165e-46
1.125,1.48030391190606e-46
1.13,1.77704005784835e-46
1.135,2.13293613073571e-46
1.14,2.55972191477589e-46
1.145,3.07143992025424e-46
1.15,3.68489879826639e-46
1.155,4.42021513842998e-46
1.16,5.30146077756352e-46
1.165,6.3574360469906e-46
1.17,7.62259331765771e-46
1.175,9.13813988591277e-46
1.18,1.09533548215627e-45
1.185,1.312716104377e-45
1.19,1.57300018015637e-45
1.195,1.88460801544744e-45
1.2,2.25760312605615e-45
1.205,2.70401106231217e-45
1.21,3.23819973266324e-45
1.215,3.87733301857566e-45
1.22,4.64191172069653e-45
1.225,5.55641854957082e-45
1.23,6.65008705345157e-45
1.235,7.95781815604343e-45
1.24,9.52127247130495e-45
1.245,1.13901719047029e-44
1.25,1.36238503995786e-44
1.255,1.62931012321465e-44
1.26,1.94823772228634e-44
1.265,2.32924108807783e-44
1.27,2.78433341456268e-44
1.275,3.32783924128606e-44
1.28,3.97683653616052e-44
1.285,4.75168282787461e-44
1.29,5.67664127048774e-44
1.295,6.78062550553412e-44
1.3,8.09808572636325e-44
1.305,9.67006254871215e-44
1.31,1.15454402728864e-43
1.315,1.37824370311435e-43
1.32,1.64503763202851e-43
1.325,1.96317927268649e-43
1.33,2.34249345008629e-43
1.335,2.79467373071451e-43
1.34,3.33363573185863e-43
1.345,3.97593682078286e-43
1.35,4.74127460164094e-43
1.355,5.65307888863533e-43
1.36,6.73921458875276e-43
1.365,8.03281614412233e-43
1.37,9.57327800447895e-43
1.375,1.14074301229284e-42
1.38,1.35909328214236e-42
1.385,1.61899317075949e-42
1.39,1.92830208207913e-42
1.395,2.29635710537299e-42
1.4,2.73424913866092e-42
1.405,3.255150287758e-42
1.41,3.87470200248924e-42
1.415,4.61147514624288e-42
1.42,5.48751524561368e-42
1.425,6.5289885905676e-42
1.43,7.76694771977809e-42
1.435,9.2382382100789e-42
1.44,1.09865726871391e-41
1.445,1.30638026971266e-41
1.45,1.5531424656636e-41
1.455,1.84623626842767e-41
1.46,2.19430788931471e-41
1.465,2.60760709024759e-41
1.47,3.09828271604377e-41
1.475,3.68073234548974e-41
1.48,4.37201590734548e-41
1.485,5.192344886972e-41
1.49,6.165660848292e-41
1.495,7.32031947125374e-41
1.5,8.68989922389949e-41
1.505,1.03141572294575e-40
1.51,1.22401589454257e-40
1.515,1.45236130526216e-40
1.52,1.72304485861452e-40
1.525,2.04386779782244e-40
1.53,2.42405975027461e-40
1.535,2.8745385821796e-40
1.54,3.40821721814032e-40
1.545,4.04036585755644e-40
1.55,4.78903952337777e-40
1.555,5.67558264863664e-40
1.56,6.7252244892134e-40
1.565,7.9677816024368e-40
1.57,9.43848651500213e-40
1.575,1.11789650961501e-39
1.58,1.32383891421522e-39
1.585,1.5674835370439e-39
1.59,1.85568875388742e-39
1.595,2.196552489171e-39
1.6,2.59963477576e-39
1.605,3.07622000848257e-39
1.61,3.63962592271325e-39
1.615,4.30556756627795e-39
1.62,5.0925859859251e-39
1.625,6.02255305612689e-39
1.63,7.12126588194614e-39
1.635,8.41914656060959e-39
1.64,9.95206584857449e-39
1.645,1.17623125229446e-38
1.65,1.38997340308464e-38
1.655,1.64230784847875e-38
1.66,1.94015732996035e-38
1.665,2.29167819103124e-38
1.67,2.70647872156195e-38
1.675,3.19587588411405e-38
1.68,3.77319712227343e-38
1.685,4.45413511231425e-38
1.69,5.25716468061321e-38
1.695,6.20403270429277e-38
1.7,7.32033368149424e-38
1.705,8.6361858471604e-38
1.71,1.01870252747922e-37
1.715,1.20145384081487e-37
1.72,1.41677569838193e-37
1.725,1.67043434231544e-37
1.73,1.96920995919856e-37
1.735,2.32107374678156e-37
1.74,2.73539568556181e-37
1.745,3.2231883017266e-37
1.75,3.79739261153155e-37
1.755,4.47321349405056e-37
1.76,5.26851297520436e-37
1.765,6.20427135117142e-37
1.77,7.30512776886038e-37
1.775,8.60001385608573e-37
1.78,1.01228963022751e-36
1.785,1.19136469877435e-36
1.79,1.40190624108617e-36
1.795,1.64940578436742e-36
1.8,1.94030659461389e-36
1.805,2.28216745902291e-36
1.81,2.68385445077799e-36
1.815,3.15576542201691e-36
1.82,3.71009276967199e-36
1.825,4.36113095120728e-36
1.83,5.12563631519116e-36
1.835,6.02324808088437e-36
1.84,7.07698078159759e-36
1.845,8.31380021337231e-36
1.85,9.76529694420362e-36
1.855,1.14684737868341e-35
1.86,1.34666663751118e-35
1.865,1.58106191740152e-35
1.87,1.85597429711588e-35
1.875,2.17835842294201e-35
1.88,2.5563541726989e-35
1.885,2.99948717895798e-35
1.89,3.51890302658218e-35
1.895,4.12764073689978e-35
1.9,4.8409520790022e-35
1.905,5.67667432912457e-35
1.91,6.6556653566174e-35
1.915,7.80231137844817e-35
1.92,9.14511942690371e-35
1.925,1.07174085560205e-34
1.93,1.25581161163137e-34
1.935,1.4712738106899e-34
1.94,1.72344257298092e-34
1.945,2.01852638936219e-34
1.95,2.36377616241241e-34
1.955,2.76765892334337e-34
1.96,3.24006027856545e-34
1.965,3.79252030042286e-34
1.97,4.43850834413793e-34
1.975,5.1937431644709e-34
1.98,6.07656574086154e-34
1.985,7.10837342187089e-34
1.99,8.31412539523763e-34
1.995,9.72293110967487e-34
2,1.13687351544161e-33
2.005,1.32911142838806e-33
2.01,1.5536204805612e-33
2.015,1.81577814853552e-33
2.02,2.12185125280219e-33
2.025,2.47914191416864e-33
2.03,2.89615727697157e-33
2.035,3.3828068383153e-33
2.04,3.95063183767195e-33
2.045,4.61307187403852e-33
2.05,5.38577474383747e-33
2.055,6.28695644967251e-33
2.06,7.33781943849169e-33
2.065,8.56303841143624e-33
2.07,9.99132453417264e-33
2.075,1.16560805975501e-32
2.08,1.35961616706937e-32
2.085,1.58567580945079e-32
2.09,1.84904203319523e-32
2.095,2.1558248278868e-32
2.1,2.5131271210815e-32
2.105,2.92920486726033e-32
2.11,3.41365273948814e-32
2.115,3.97761948465435e-32
2.12,4.6340576418515e-32
2.125,5.39801306171158e-32
2.13,6.28696051776027e-32
2.135,7.32119268681386e-32
2.14,8.52427091458891e-32
2.145,9.92354749862375e-32
2.15,1.1550770740494e-31
2.155,1.34427857744904e-31
2.16,1.56423462065055e-31
2.165,1.81990539364414e-31
2.17,2.11704472379056e-31
2.175,2.46232602854867e-31
2.18,2.86348809159865e-31
2.185,3.3295037558822e-31
2.19,3.87077510565289e-31
2.195,4.49935926158103e-31
2.2,5.22922954943818e-31
2.205,6.07657753672113e-31
2.21,7.06016227751986e-31
2.215,8.20171408096398e-31
2.22,9.52640124220398e-31
2.225,1.10633694695461e-30
2.23,1.28463652328523e-30
2.235,1.4914455976286e-30
2.24,1.73128621170138e-30
2.245,2.00939180296885e-30
2.25,2.33181818394583e-30
2.255,2.7055716865477e-30
2.26,3.1387571031805e-30
2.265,3.6407484561316e-30
2.27,4.22238608689263e-30
2.275,4.89620408630065e-30
2.28,5.67669269511716e-30
2.285,6.58060100470961e-30
2.29,7.6272860924189e-30
2.295,8.8391156515493e-30
2.3,1.02419322395602e-29
2.305,1.18655884904331e-29
2.31,1.37445640418062e-29
2.315,1.59186765412171e-29
2.32,1.84339009495019e-29
2.325,2.13433134884133e-29
2.33,2.47081790243442e-29
2.335,2.85992034870234e-29
2.34,3.30979761443909e-29
2.345,3.82986302533554e-29
2.35,4.43097548504987e-29
2.355,5.12565953167937e-29
2.36,5.92835859373718e-29
2.365,6.85572640857913e-29
2.37,7.92696230118168e-29
2.375,9.16419686390838e-29
2.38,1.05929355440938e-28
2.385,1.22425687538056e-28
2.39,1.41469583855023e-28
2.395,1.63451120718847e-28
2.4,1.88819581948162e-28
2.405,2.18092365573368e-28
2.41,2.51865218194724e-28
2.415,2.90823993026948e-28
2.42,3.3575815635133e-28
2.425,3.87576299921053e-28
2.43,4.47323954437386e-28
2.435,5.16204042213519e-28
2.44,5.95600356344638e-28
2.445,6.87104509993966e-28
2.45,7.9254686379406e-28
2.455,9.14032013006652e-28
2.46,1.05397950029631e-27
2.465,1.21517051625633e-27
2.47,1.40080145989041e-27
2.475,1.61454535705503e-27
2.48,1.86062227862875e-27
2.485,2.14388006443787e-27
2.49,2.46988684661955e-27
2.495,2.84503708044797e-27
2.5,3.27667303543437e-27
2.505,3.7732239790226e-27
2.51,4.34436560431043e-27
2.515,5.00120261748064e-27
2.52,5.75647781635258e-27
2.525,6.62481146584879e-27
2.53,7.62297531741546e-27
2.535,8.77020623685035e-27
2.54,1.00885651091889e-26
2.545,1.16033474923483e-26
2.55,1.33435534068513e-26
2.555,1.5342424692761e-26
2.56,1.76380595547169e-26
2.565,2.02741152718322e-26
2.57,2.33006115941703e-26
2.575,2.67748491076172e-26
2.58,3.07624588538503e-26
2.585,3.53386017754587e-26
2.59,4.05893391563234e-26
2.595,4.66131981875834e-26
2.6,5.352296015925e-26
2.605,6.14477026127503e-26
2.61,7.05351311540893e-26
2.615,8.09542415929881e-26
2.62,9.28983587223286e-26
2.625,1.06588604477376e-25
2.63,1.22277855521117e-25
2.635,1.40255258610236e-25
2.64,1.60851381541395e-25
2.645,1.8444408821355e-25
2.65,2.11465238543352e-25
2.655,2.42408327835008e-25
2.66,2.77837195957457e-25
2.665,3.18395954574208e-25
2.67,3.64820300992482e-25
2.675,4.17950410274332e-25
2.68,4.78745623452126e-25
2.685,5.48301179432646e-25
2.69,6.27867271930778e-25
2.695,7.18870751081746e-25
2.7,8.22939832846041e-25
2.705,9.41932228630318e-25
2.71,1.07796716347659e-24
2.715,1.23346181460052e-24
2.72,1.41117277397929e-24
2.725,1.61424322022684e-24
2.73,1.84625657741674e-24
2.735,2.11129754325993e-24
2.74,2.41402148773747e-24
2.745,2.75973335776375e-24
2.75,3.15447737578583e-24
2.755,3.60513899275404e-24
2.76,4.11956075127004e-24
2.765,4.70667393592498e-24
2.77,5.37664813825271e-24
2.775,6.14106114715216e-24
2.78,7.01309189638182e-24
2.785,8.0077395636477e-24
2.79,9.14207232638011e-24
2.795,1.04355097436883e-23
2.8,1.19101432591893e-23
2.805,1.35910999132686e-23
2.81,1.55069550247309e-23
2.815,1.76902003607234e-23
2.82,2.01777751715395e-23
2.825,2.30116684361387e-23
2.83,2.62396017592699e-23
2.835,2.9915803598064e-23
2.84,3.41018868930879e-23
2.845,3.8867843756536e-23
2.85,4.42931726515677e-23
2.855,5.04681555077133e-23
2.86,5.74953044869882e-23
2.865,6.54910006767542e-23
2.87,7.45873498754966e-23
2.875,8.49342838981042e-23
2.88,9.67019395049166e-23
2.885,1.1008335120635e-22
2.89,1.25297498871607e-22
2.895,1.42592756342538e-22
2.9,1.62250793196965e-22
2.905,1.84590988504066e-22
2.91,2.09975422962215e-22
2.915,2.38814524313607e-22
2.92,2.71573450509326e-22
2.925,3.08779305887619e-22
2.93,3.51029297777762e-22
2.935,3.98999954621337e-22
2.94,4.53457542102047e-22
2.945,5.15269831107943e-22
2.95,5.85419390855067e-22
2.955,6.65018602448751e-22
2.96,7.55326612848564e-22
2.965,8.57768476974278e-22
2.97,9.73956766922233e-22
2.975,1.10571596237961e-21
2.98,1.25510997580532e-21
2.985,1.42447321032586e-21
2.99,1.61644559817042e-21
2.995,1.83401212351566e-21
3,2.08054739657726e-21
3.005,2.35986591651733e-21
3.01,2.67627874017765e-21
3.015,3.03465736285531e-21
3.02,3.44050571749722e-21
3.025,3.90004131112113e-21
3.03,4.42028664346882e-21
3.035,5.00917219450895e-21
3.04,5.67565242630295e-21
3.045,6.42983642299632e-21
3.05,7.28313499263291e-21
3.055,8.2484262787017e-21
3.06,9.34024218073678e-21
3.065,1.05749781651295e-20
3.07,1.19711293632377e-20
3.075,1.35495562079264e-20
3.08,1.53337832563997e-20
3.085,1.73503352916487e-20
3.09,1.96291152927075e-20
3.095,2.22038294214983e-20
3.1,2.51124647984347e-20
3.105,2.83978265379889e-20
3.11,3.21081412979578e-20
3.115,3.62977354719664e-20
3.12,4.10277971348073e-20
3.125,4.6367231946745e-20
3.13,5.23936244495616e-20
3.135,5.91943175590872e-20
3.14,6.68676245932227e-20
3.145,7.55241898898877e-20
3.15,8.52885159870745e-20
3.155,9.63006774806564e-20
3.16,1.0871824407104e-19
3.165,1.2271843798629e-19
3.17,1.38500553959494e-19
3.175,1.56288673278085e-19
3.18,1.76334707152827e-19
3.185,1.98921808819114e-19
3.19,2.24368198433116e-19
3.195,2.53031450015559e-19
3.2,2.85313295488551e-19
3.205,3.21665007314626e-19
3.21,3.62593428458558e-19
3.215,4.0866772643683e-19
3.22,4.60526957191201e-19
3.225,5.18888534527472e-19
3.23,5.84557712014653e-19
3.235,6.5843819667391e-19
3.24,7.41544027644949e-19
3.245,8.35012868460852e-19
3.25,9.40120878768899e-19
3.255,1.05829935050298e-18
3.26,1.19115331486217e-18
3.265,1.34048235022531e-18
3.27,1.5083038476029e-18
3.275,1.6968790196969e-18
3.28,1.90874197244015e-18
3.285,2.14673219439005e-18
3.29,2.41403085996762e-18
3.295,2.71420138771789e-18
3.3,3.05123474502783e-18
3.305,3.42960004663245e-18
3.31,3.85430105639077e-18
3.315,4.33093927090951e-18
3.32,4.86578434039621e-18
3.325,5.46585266748028e-18
3.33,6.13899511958986e-18
3.335,6.89399489584408e-18
3.34,7.740676706474e-18
3.345,8.69002855278223e-18
3.35,9.75433754000658e-18
3.355,1.09473413157202e-17
3.36,1.22843969043078e-17
3.365,1.37826689055078e-17
3.37,1.54613392441224e-17
3.375,1.73418409010901e-17
3.38,1.94481183257892e-17
3.385,2.1806917528535e-17
3.39,2.44481091839036e-17
3.395,2.74050484432604e-17
3.4,3.07149755625193e-17
3.405,3.4419461903007e-17
3.41,3.85649063639946e-17
3.415,4.32030878602535e-17
3.42,4.83917800725692e-17
3.425,5.41954353798584e-17
3.43,6.06859456353828e-17
3.435,6.79434882842237e-17
3.44,7.60574672431983e-17
3.445,8.51275589871887e-17
3.45,9.52648754176575e-17
3.455,1.06593256341552e-16
3.46,1.19250705774263e-16
3.465,1.33390987812781e-16
3.47,1.49185399520038e-16
3.475,1.66824740135363e-16
3.48,1.86521497997753e-16
3.485,2.08512278858705e-16
3.49,2.33060501792093e-16
3.495,2.60459391705137e-16
3.5,2.91035300543965e-16
3.505,3.2515139269989e-16
3.51,3.6321173389148e-16
3.515,4.05665826959101e-16
3.52,4.5301364260328e-16
3.525,5.05811198169961e-16
3.53,5.64676743182824e-16
3.535,6.30297616499564e-16
3.54,7.03437846782983e-16
3.545,7.84946575494571e-16
3.55,8.75767389908058e-16
3.555,9.76948662781862e-16
3.56,1.08965500540797e-15
3.565,1.21517995186398e-15
3.57,1.35496000453979e-15
3.575,1.51059018450257e-15
3.58,1.68384124512914e-15
3.585,1.87667872380972e-15
3.59,2.09128402456233e-15
3.595,2.3300777442564e-15
3.6,2.59574547701042e-15
3.605,2.89126635539677e-15
3.61,3.21994461357932e-15
3.615,3.58544448665961e-15
3.62,3.99182879258148e-15
3.625,4.44360157822569e-15
3.63,4.94575525013034e-15
3.635,5.50382265294509e-15
3.64,6.12393460564518e-15
3.645,6.81288345710203e-15
3.65,7.57819327929603e-15
3.655,8.4281973787449e-15
3.66,9.37212387516097e-15
3.665,1.04201901715333e-14
3.67,1.15837072224013e-14
3.675,1.28751945977682e-14
3.68,1.43085074396557e-14
3.685,1.58989765175935e-14
3.69,1.76635627092935e-14
3.695,1.96210273643822e-14
3.7,2.17921201534995e-14
3.705,2.41997861634941e-14
3.71,2.68693941732196e-14
3.715,2.98289882349864e-14
3.72,3.31095648956474e-14
3.725,3.67453786203304e-14
3.73,4.07742782328468e-14
3.735,4.52380774618872e-14
3.74,5.01829629835079e-14
3.745,5.56599436805649e-14
3.75,6.17253452013665e-14
3.755,6.84413542958154e-14
3.76,7.58766178408416e-14
3.765,8.41069019415765e-14
3.77,9.3215817014153e-14
3.775,1.03295615324471e-13
3.78,1.14448068079216e-13
3.785,1.26785429845754e-13
