Retention Time (min),Signal (arb. units)
0,3.25990501406927e-31
0.005,4.08006507848351e-31
0.01,5.10491476356401e-31
0.015,6.38512142117428e-31
0.02,7.98378965012781e-31
0.025,9.97948827270136e-31
0.03,1.2470007615678e-30
0.035,1.55770217290098e-30
0.04,1.94518715551293e-30
0.045,2.42827361559694e-30
0.05,3.0303522171641e-30
0.055,3.78048795032811e-30
0.06,4.71478472003506e-30
0.065,5.87807518910897e-30
0.07,7.32601269873977e-30
0.075,9.12766006656551e-30
0.08,1.13686922063401e-29
0.085,1.41553567802734e-29
0.09,1.76193706592351e-29
0.095,2.19239712671534e-29
0.1,2.72713926901071e-29
0.105,3.39120989028527e-29
0.11,4.21561832591977e-29
0.115,5.23874377582799e-29
0.12,6.50807115173816e-29
0.125,8.08233202269192e-29
0.13,1.00341443099045e-28
0.135,1.24532658244532e-28
0.14,1.54506030446583e-28
0.145,1.91631487854093e-28
0.15,2.3760061952242e-28
0.155,2.9450151027391e-28
0.16,3.64910822923465e-28
0.165,4.52007064798204e-28
0.17,5.59709865307912e-28
0.175,6.9285118024502e-28
0.18,8.57385670595146e-28
0.185,1.06064913266726e-27
0.19,1.3116758478014e-27
0.195,1.62158815357121e-27
0.2,2.00407451143598e-27
0.205,2.47597597649749e-27
0.21,3.05800540733294e-27
0.215,3.77562916291651e-27
0.22,4.66014763236689e-27
0.225,5.75001899053555e-27
0.23,7.09248038288007e-27
0.235,8.74553269879986e-27
0.24,1.07803696577449e-26
0.245,1.32843496702922e-26
0.25,1.63646305306794e-26
0.255,2.01526132772944e-26
0.26,2.48093735290288e-26
0.265,3.05322974872967e-26
0.27,3.75631870632351e-26
0.275,4.61981560367985e-26
0.28,5.67997089464241e-26
0.285,6.98114791687282e-26
0.29,8.57762055535602e-26
0.295,1.05357651875446e-25
0.3,1.2936732490293e-25
0.305,1.58797030713352e-25
0.31,1.94858531839836e-25
0.315,2.39031838274985e-25
0.32,2.93123993516445e-25
0.325,3.59340615472685e-25
0.33,4.40372937404506e-25
0.335,5.39503687720037e-25
0.34,6.60735879756698e-25
0.345,8.08949500099444e-25
0.35,9.90092264191284e-25
0.355,1.21141219259517e-24
0.36,1.48174202627568e-24
0.365,1.81184900746399e-24
0.37,2.214869482411e-24
0.375,2.70685863483587e-24
0.38,3.30750677318366e-24
0.385,4.0411163777356e-24
0.39,4.93802289200602e-24
0.395,6.03682872626324e-24
0.4,7.38821358917111e-24
0.405,9.06191571500572e-24
0.41,1.11602314109817e-23
0.415,1.38450635359834e-23
0.42,1.73932571717833e-23
0.425,2.23110170359767e-23
0.43,2.95714887354938e-23
0.435,4.11082561125977e-23
0.44,6.0838457367623e-23
0.445,9.6777065016528e-23
0.45,1.65388690601213e-22
0.455,3.00505365284586e-22
0.46,5.71515822204654e-22
0.465,1.12028724943461e-21
0.47,2.23574483863913e-21
0.475,4.50377316211871e-21
0.48,9.10701250400737e-21
0.485,1.84214450555502e-20
0.49,3.71976414256236e-20
0.495,7.48879099849499e-20
0.5,1.50207939232304e-19
0.505,3.00033496990044e-19
0.51,5.96664572997243e-19
0.515,1.18115784597188e-18
0.52,2.3273582640935e-18
0.525,4.5642826701827e-18
0.53,8.90885000122652e-18
0.535,1.73062135362996e-17
0.54,3.34586654333767e-17
0.545,6.43781049686967e-17
0.55,1.23278935569925e-16
0.555,2.34941377062975e-16
0.56,4.45604301341244e-16
0.565,8.41120130240793e-16
0.57,1.58010225780951e-15
0.575,2.95413748882509e-15
0.58,5.49660402321808e-15
0.585,1.01783262881345e-14
0.59,1.87575630377598e-14
0.595,3.44028610716812e-14
0.6,6.27958282622218e-14
0.605,1.14073587020834e-13
0.61,2.06232672522847e-13
0.615,3.71063215427602e-13
0.62,6.64440959642644e-13
0.625,1.18408518524743e-12
0.63,2.10003993901851e-12
0.635,3.70672371531263e-12
0.64,6.51134840380669e-12
0.645,1.1383339946723e-11
0.65,1.98055328736826e-11
0.655,3.42942580967801e-11
0.66,5.90982126468863e-11
0.665,1.01355036587453e-10
0.67,1.72995329031076e-10
0.675,2.93860676039353e-10
0.68,4.96782883066542e-10
0.685,8.35814358528462e-10
0.69,1.39949414424113e-09
0.695,2.33211733687662e-09
0.7,3.86765531827228e-09
0.705,6.38356349982838e-09
0.71,1.04856813631267e-08
0.715,1.71414747649122e-08
0.72,2.78880253729686e-08
0.725,4.51549535624355e-08
0.73,7.27630824862762e-08
0.735,1.16690320256466e-07
0.74,1.86241571889672e-07
0.745,2.95826093830122e-07
0.75,4.67642941342021e-07
0.755,7.35716238446973e-07
0.76,1.1519253981286e-06
0.765,1.79496679877946e-06
0.77,2.78359815393618e-06
0.775,4.29610328131304e-06
0.78,6.59873885010283e-06
0.785,1.00870743668394e-05
0.79,1.53457301864439e-05
0.795,2.32342119732593e-05
0.8,3.50095388592899e-05
0.805,5.25004332423675e-05
0.81,7.83533262999742e-05
0.815,0.000116377773134733
0.82,0.000172028618366016
0.825,0.000253075098044809
0.83,0.00037052386026716
0.835,0.000539884675389567
0.84,0.000782895639591163
0.845,0.00112986043800329
0.85,0.00162279545936643
0.855,0.00231964123029878
0.86,0.00329986299439477
0.865,0.00467185174229968
0.87,0.00658264219856189
0.875,0.00923059083964234
0.88,0.0128818075176793
0.885,0.0178913109740344
0.89,0.0247300831764068
0.895,0.0340194308559497
0.9,0.0465743244227727
0.905,0.0634576723962511
0.91,0.0860477990736684
0.915,0.116121716914176
0.92,0.155957111989253
0.925,0.208456275568473
0.93,0.277295497357538
0.935,0.367103660636481
0.94,0.483673915456482
0.945,0.634212316327625
0.95,0.827627153240064
0.955,1.07486233252886
0.96,1.38927752680405
0.965,1.78707685933154
0.97,2.28778656756734
0.975,2.91478035741667
0.98,3.69584897744715
0.985,4.66380788759371
0.99,5.85713376564114
0.995,7.32061700725937
1,9.10601338196522
1.005,11.2726736936672
1.01,13.8881257854399
1.015,17.0285786911646
1.02,20.7793143820571
1.025,25.2349286356843
1.03,30.4993793572861
1.035,36.6857985249645
1.04,43.9160231450054
1.045,52.3198015256426
1.05,62.033634123139
1.055,73.1992134591708
1.06,85.9614353648679
1.065,100.465964197016
1.07,116.856347704948
1.075,135.270692776356
1.08,155.837931077854
1.085,178.673723188859
1.09,203.876070596134
1.095,231.520726101734
1.1,261.656513888246
1.105,294.300689658025
1.11,329.434487821848
1.115,366.999015539896
1.12,406.891661435492
1.125,448.963189034228
1.13,493.015680623069
1.135,538.801485707006
1.14,586.023309290469
1.145,634.335548895386
1.15,683.346955990728
1.155,732.624658180786
1.16,781.699534292473
1.165,830.072886974147
1.17,877.224308420584
1.175,922.620586436743
1.18,965.725452431533
1.185,1006.00993228599
1.19,1042.96302745363
1.195,1076.10242898267
1.2,1104.98495291982
1.205,1129.21638284586
1.21,1148.46041467258
1.215,1162.44642030325
1.22,1170.97577974452
1.225,1173.92657460723
1.23,1171.25648797327
1.235,1163.00381421844
1.24,1149.28654510812
1.245,1130.29956265186
1.25,1106.31003206698
1.255,1077.65114707999
1.26,1044.71443221701
1.265,1007.94085056192
1.27,967.810998997056
1.275,924.834695007852
1.28,879.540269121889
1.285,832.463874938545
1.29,784.139115029926
1.295,735.087256814693
1.3,685.808279323956
1.305,636.772951436488
1.31,588.416096736118
1.315,541.131151828769
1.32,495.266075938085
1.325,451.120621951187
1.33,408.944934673364
1.335,368.939402447197
1.34,331.255654726993
1.345,295.998571524292
1.35,263.229151316985
1.355,232.968072129693
1.36,205.199775788386
1.365,179.876907272295
1.37,156.924948836464
1.375,136.24690119031
1.38,117.72788041615
1.385,101.239518380248
1.39,86.644075029183
1.395,73.7981921478317
1.4,62.5562389643255
1.405,52.7732196452735
1.41,44.3072306137832
1.415,37.0214712923619
1.42,30.7858250358433
1.425,25.4780375426053
1.43,20.9845279183382
1.435,17.2008729329084
1.44,14.032008065285
1.445,11.3921899474465
1.45,9.20476411038417
1.455,7.40177983771358
1.46,5.92349077888083
1.465,4.71777608253511
1.47,3.73951247142447
1.475,2.94992314692835
1.48,2.31592489659874
1.485,1.80949045128797
1.49,1.40703912667904
1.495,1.08886517475949
1.5,0.838610116005759
1.505,0.642782644444257
1.51,0.490327492209744
1.515,0.372242885410815
1.52,0.281244882833896
1.525,0.211475918009649
1.53,0.158254213276131
1.535,0.117860350106174
1.54,0.0873571127868292
1.545,0.0644387254649981
1.55,0.047305733123247
1.555,0.0345619981262865
1.56,0.0251305641912985
1.565,0.018185453259704
1.57,0.0130967874150367
1.575,0.00938695219599975
1.58,0.00669582815357144
1.585,0.00475340666988229
1.59,0.00335836923562968
1.595,0.0023614442663386
1.6,0.00165256161585004
1.605,0.00115100301658938
1.61,0.000797898436130754
1.615,0.000550546045345066
1.62,0.000378139698651786
1.625,0.000258575181215641
1.63,0.000176077581683778
1.635,0.000119449454334023
1.64,8.07851834851739e-05
1.645,5.45331553901382e-05
1.65,3.68157248769233e-05
1.655,2.49390331602934e-05
1.66,1.70417529837743e-05
1.665,1.18448581824953e-05
1.67,8.47439892150069e-06
1.675,6.33670988536964e-06
1.68,5.03104625620593e-06
1.685,4.28877493782469e-06
1.69,3.93129401909189e-06
1.695,3.84108206823811e-06
1.7,3.94189834211223e-06
1.705,4.1853238183698e-06
1.71,4.54167084335616e-06
1.715,4.99388584339941e-06
1.72,5.533491635161e-06
1.725,6.15791253071448e-06
1.73,6.86873260307425e-06
1.735,7.67058123968897e-06
1.74,8.57043925136383e-06
1.745,9.57722675415048e-06
1.75,1.07015803360199e-05
1.755,1.1955758377788e-05
1.76,1.33536345209657e-05
1.765,1.49107534319066e-05
1.77,1.66444324575648e-05
1.775,1.85738990500036e-05
1.78,2.07204580079741e-05
1.785,2.31076853573503e-05
1.79,2.57616475473582e-05
1.795,2.8711145896838e-05
1.8,3.19879870971152e-05
1.805,3.56272812061707e-05
1.81,3.96677690452485e-05
1.815,4.41521812944802e-05
1.82,4.91276319182273e-05
1.825,5.46460488596256e-05
1.83,6.07646452443466e-05
1.835,6.75464346372893e-05
1.84,7.50607942105136e-05
1.845,8.33840800117151e-05
1.85,9.26002988740087e-05
1.855,0.000102801841882889
1.86,0.000114090284717767
1.865,0.000126577260615814
1.87,0.000140385412167378
1.875,0.000155649428647191
1.88,0.000172517176116371
1.885,0.000191150928099166
1.89,0.000211728705247977
1.895,0.00023444573306308
1.9,0.000259516027432264
1.905,0.000287174118503228
1.91,0.00031767692420097
1.915,0.000351305785556681
1.92,0.00038836867692706
1.925,0.000429202605156946
1.93,0.000474176212777232
1.935,0.000523692601437946
1.94,0.000578192392956985
1.945,0.000638157046622313
1.95,0.000704112452723775
1.955,0.000776632823714145
1.96,0.000856344905912573
1.965,0.000943932536271377
1.97,0.00104014157043452
1.975,0.00114578521012777
1.98,0.00126174975984171
1.985,0.00138900084480522
1.99,0.00152859012440326
1.995,0.00168166253747583
2,0.00184946411834934
2.005,0.00203335042500373
2.01,0.00223479562347537
2.015,0.00245540227544126
2.02,0.00269691187893315
2.025,0.00296121621529507
2.03,0.00325036955883197
2.035,0.00356660180910774
2.04,0.00391233260954255
2.045,0.00429018651984111
2.05,0.0047030093138601
2.055,0.00515388547880126
2.06,0.005646156996105
2.065,0.00618344348912116
2.07,0.00676966382755771
2.075,0.00740905928386056
2.08,0.00810621834206209
2.085,0.00886610326526242
2.09,0.00969407853377719
2.095,0.0105959412721064
2.1,0.0115779537892563
2.105,0.0126468783635808
2.11,0.0138100144102124
2.115,0.0150752381763165
2.12,0.0164510451168475
2.125,0.0179465951111901
2.13,0.0195717606890616
2.135,0.0213371784423098
2.14,0.0232543038077798
2.145,0.0253354694152332
2.15,0.0275939472033923
2.155,0.0300440145165305
2.16,0.0327010244036564
2.165,0.035581480352214
2.17,0.0387031156983569
2.175,0.0420849779662335
2.18,0.0457475183993287
2.185,0.0497126869577508
2.19,0.0540040330663908
2.195,0.0586468124101292
2.2,0.0636681000836811
2.205,0.0690969104152452
2.21,0.0749643237948443
2.215,0.0813036208500624
2.22,0.0881504243238055
2.225,0.0955428490206816
2.23,0.103521660200592
2.235,0.112130440810124
2.24,0.121415767954276
2.245,0.13142739902291
2.25,0.14221846789806
2.255,0.153845691679791
2.26,0.16636958837962
2.265,0.179854706041616
2.27,0.194369863761958
2.275,0.209988405088138
2.28,0.226788464288812
2.285,0.244853245994706
2.29,0.264271318719725
2.295,0.285136922779511
2.3,0.307550293132062
2.305,0.331617997671525
2.31,0.357453291511897
2.315,0.385176487801994
2.32,0.414915345616524
2.325,0.446805475470456
2.33,0.480990763004891
2.335,0.517623811392264
2.34,0.556866403006881
2.345,0.598889980903266
2.35,0.643876150639617
2.355,0.692017202976629
2.36,0.743516657972911
2.365,0.798589830987171
2.37,0.857464421084046
2.375,0.92038112232481
2.38,0.98759425840616
2.385,1.05937244108962
2.39,1.13599925284068
2.395,1.21777395407072
2.4,1.30501221534541
2.405,1.39804687489115
2.41,1.49722872169563
2.415,1.60292730445953
2.42,1.71553176661452
2.425,1.83545170757618
2.43,1.96311807035147
2.435,2.0989840555666
2.44,2.24352606192369
2.445,2.39724465303368
2.45,2.56066555050683
2.455,2.73434065311284
2.46,2.91884908174847
2.465,3.11479824987197
2.47,3.32282495898106
2.475,3.54359651862358
2.48,3.77781189033842
2.485,4.02620285482758
2.49,4.28953520155946
2.495,4.56860993989806
2.5,4.86426453074231
2.505,5.17737413754552
2.51,5.50885289546568
2.515,5.85965519727394
2.52,6.23077699452075
2.525,6.62325711232719
2.53,7.03817857603282
2.535,7.47666994779165
2.54,7.93990667106355
2.545,8.42911242080153
2.55,8.94556045698438
2.555,9.49057497899029
2.56,10.0655324781505
2.565,10.671863085663
2.57,11.3110519128841
2.575,11.9846403808536
2.58,12.6942275357439
2.585,13.4414713467561
2.59,14.228089982823
2.595,15.0558630643082
2.6,15.9266328857271
2.605,16.8423056053479
2.61,17.804852397368
2.615,18.8163105621968
2.62,19.8787845902194
2.625,20.994447174254
2.63,22.1655401657678
2.635,23.394375469765
2.64,24.6833358731174
2.645,26.0348758009712
2.65,27.4515219957335
2.655,28.9358741130161
2.66,30.4906052288025
2.665,32.1184622519945
2.67,33.8222662363998
2.675,35.6049125861374
2.68,37.4693711483586
2.685,39.4186861871255
2.69,41.4559762322335
2.695,43.5844337967335
2.7,45.8073249568872
2.705,48.1279887882825
2.71,50.5498366518522
2.715,53.0763513235607
2.72,55.7110859615785
2.725,58.4576629048228
2.73,61.3197722968302
2.735,64.3011705290361
2.74,67.4056784976542
2.745,70.6371796685055
2.75,73.9996179443119
2.755,77.4969953291613
2.76,81.1333693850734
2.765,84.912850475828
2.77,88.839598793489
2.775,92.9178211633414
2.78,97.1517676232753
2.785,101.545727773989
2.79,106.104026896749
2.795,110.831021835829
2.8,115.73109664318
2.805,120.808657983302
2.81,126.068130296771
2.815,131.51395072136
2.82,137.150563770206
2.825,142.982415767017
2.83,149.013949038871
2.835,155.249595867744
2.84,161.693772202528
2.845,168.350871133895
2.85,175.22525613505
2.855,182.321254072053
2.86,189.64314798809
2.865,197.195169666785
2.87,204.981491980335
2.875,213.006221029006
2.88,221.273388079272
2.885,229.786941308601
2.89,238.550737365713
2.895,247.568532755826
2.9,256.843975061269
2.905,266.380594008531
2.91,276.181792393656
2.915,286.250836878643
2.92,296.59084867226
2.925,307.204794109497
2.93,318.095475144575
2.935,329.265519773225
2.94,340.717372400636
2.945,352.453284172201
2.95,364.475303284887
2.955,376.785265297703
2.96,389.38478346039
2.965,402.275239080083
2.97,415.457771946251
2.975,428.933270834794
2.98,442.702364112674
2.985,456.76541046494
2.99,471.122489766416
2.995,485.773394120739
3,500.717619089742
3.005,515.954355136482
3.01,531.482479305451
3.015,547.300547163673
3.02,563.406785026528
3.025,579.799082492225
3.03,596.474985308807
3.035,613.431688597557
3.04,630.666030456531
3.045,648.174485967764
3.05,665.953161631427
3.055,683.997790249902
3.06,702.303726284353
3.065,720.865941705883
3.07,739.679022362862
3.075,758.737164885391
3.08,778.034174147189
3.085,797.563461304442
3.09,817.318042430352
3.095,837.290537763206
3.1,857.473171584851
3.105,877.857772745424
3.11,898.435775849093
3.115,919.198223114408
3.12,940.135766921643
3.125,961.238673058207
3.13,982.496824671897
3.135,1003.89972694031
3.14,1025.43651246335
3.145,1047.09594738415
3.15,1068.8664382424
3.155,1090.73603956208
3.16,1112.69246217447
3.165,1134.72308227523
3.17,1156.81495121273
3.175,1178.95480600331
3.18,1201.1290805671
3.185,1223.32391767634
3.19,1245.52518160647
3.195,1267.71847147841
3.2,1289.88913527854
3.205,1312.02228454115
3.21,1334.10280967657
3.215,1356.11539592598
3.22,1378.04453992253
3.225,1399.8745668364
3.23,1421.58964808003
3.235,1443.17381954756
3.24,1464.61100036158
3.245,1485.88501209804
3.25,1506.97959845908
3.255,1527.87844536193
3.26,1548.56520141042
3.265,1569.02349871474
3.27,1589.23697402321
3.275,1609.1892901292
3.28,1628.86415751479
3.285,1648.24535619199
3.29,1667.31675770114
3.295,1686.06234722556
3.3,1704.46624578047
3.305,1722.51273243371
3.31,1740.18626651515
3.315,1757.47150977137
3.32,1774.35334842154
3.325,1790.81691507065
3.33,1806.84761043562
3.335,1822.43112484025
3.34,1837.5534594348
3.345,1852.20094709633
3.35,1866.36027296622
3.355,1880.01849458183
3.36,1893.16306155975
3.365,1905.78183478878
3.37,1917.86310509167
3.375,1929.39561131545
3.38,1940.36855781133
3.385,1950.77163126609
3.39,1960.59501684845
3.395,1969.82941363481
3.4,1978.4660492807
3.405,1986.49669390527
3.41,1993.91367315828
3.415,2000.70988044051
3.42,2006.87878825023
3.425,2012.41445863053
3.43,2017.31155269404
3.435,2021.56533920358
3.44,2025.17170218961
3.445,2028.12714758714
3.45,2030.42880887717
3.455,2032.07445172004
3.46,2033.06247756992
3.465,2033.3919262626
3.47,2033.06247757044
3.475,2032.07445172108
3.48,2030.42880887876
3.485,2028.12714758927
3.49,2025.17170219231
3.495,2021.56533920687
3.5,2017.31155269795
3.505,2012.4144586351
3.51,2006.87878825549
3.515,2000.70988044652
3.52,1993.91367316509
3.525,1986.49669391293
3.53,1978.4660492893
3.535,1969.82941364441
3.54,1960.59501685913
3.545,1950.77163127795
3.55,1940.36855782447
3.555,1929.39561133
3.56,1917.86310510773
3.565,1905.7818348065
3.57,1893.16306157929
3.575,1880.01849460335
3.58,1866.36027298991
3.585,1852.20094712239
3.59,1837.55345946345
3.595,1822.43112487173
3.6,1806.84761047019
3.605,1790.81691510861
3.61,1774.3533484632
3.615,1757.47150981708
3.62,1740.18626656529
3.625,1722.51273248868
3.63,1704.46624584073
3.635,1686.06234729159
3.64,1667.31675777349
3.645,1648.24535627124
3.65,1628.86415760158
3.655,1609.18929022421
3.66,1589.23697412722
3.665,1569.02349882856
3.67,1548.56520153496
3.675,1527.87844549815
3.68,1506.97959860807
3.685,1485.88501226094
3.69,1464.61100053967
3.695,1443.17381974221
3.7,1421.58964829274
3.705,1399.8745670688
3.71,1378.04454017638
3.715,1356.11539620322
3.72,1334.10280997928
3.725,1312.0222848716
3.73,1289.88913563921
3.735,1267.71847187198
3.74,1245.52518203585
3.745,1223.3239181447
3.75,1201.12908107788
3.755,1178.95480656024
3.76,1156.81495181984
3.765,1134.72308293693
3.77,1112.69246289552
3.775,1090.73604034764
3.78,1068.86643909807
3.785,1047.09594831601
3.79,1025.43651347797
3.795,1003.89972804483
3.8,982.496825874035
3.805,961.238674366329
3.81,940.135768344807
3.815,919.198224662424
3.82,898.435777532575
3.825,877.857774575861
3.83,857.473173574673
3.835,837.290539925858
3.84,817.318044780376
3.845,797.563463857561
3.85,778.034176920399
3.855,758.737167897064
3.86,739.679025632847
3.865,720.865945255626
3.87,702.303730137018
3.875,683.997794430502
3.88,665.953166166968
3.885,648.174490887397
3.89,630.666035791715
3.895,613.431694382236
3.9,596.474991579597
3.905,579.799089288615
3.91,563.406792391099
3.915,547.300555142329
3.92,531.482487947669
3.925,515.954364495574
3.93,500.717629223145
3.935,485.773405090321
3.94,471.122501638801
3.945,456.765423311858
3.95,442.702378011338
3.955,428.933285868299
3.96,415.457788204006
3.965,402.275256658268
3.97,389.384802462445
3.975,376.785285834856
3.98,364.475325476712
3.985,352.453308147218
3.99,340.71739829695
3.995,329.265547739207
4,318.095505339594
4.005,307.204826704698
4.01,296.590883851395
4.015,286.250874838952
4.02,276.181833346819
4.025,266.380638181669
4.03,256.844022698027
4.035,247.568584117509
4.04,238.55079273251
4.045,229.787000980889
4.05,221.273452378991
4.055,213.006290301143
4.06,204.981566594487
4.065,197.195250018833
4.07,189.643234501972
4.075,182.321347201659
4.08,175.225356366232
4.085,168.350978986601
4.09,161.69388823308
4.095,155.24972067125
4.1,149.014083251792
4.105,142.982560069893
4.11,137.150718890549
4.115,131.514117436731
4.12,126.068309438039
4.125,120.808850438108
4.13,115.731303359608
4.135,110.831243826303
4.14,106.104265242162
4.145,101.545983628086
4.15,97.1520422172893
4.155,92.9181158109164
4.16,88.8399148958876
4.165,84.9131895274501
4.17,81.1337329792983
4.175,77.4973851645322
4.18,74.0000358310812
4.185,70.6376275355592
4.19,67.4061583998369
