Retention Time (min),Signal (arb. units)
0,4.48236939434531e-31
0.005,6.10213495355241e-31
0.01,8.30213682404721e-31
0.015,1.128838671978e-30
0.02,1.53393792848383e-30
0.025,2.08313591797859e-30
0.03,2.82723131573913e-30
0.035,3.83476709661789e-30
0.04,5.19817093170123e-30
0.045,7.04200022446527e-30
0.05,9.53400613603929e-30
0.055,1.28999709975975e-29
0.06,1.74435933998286e-29
0.065,2.35731212648284e-29
0.07,3.18370001820073e-29
0.075,4.29715583772867e-29
0.08,5.79647519813976e-29
0.085,7.81413255997039e-29
0.09,1.05276510430935e-28
0.095,1.4174772653377e-28
0.1,1.90736863731271e-28
0.105,2.56499833069121e-28
0.11,3.44725532076355e-28
0.115,4.63013579752729e-28
0.12,6.21509714097531e-28
0.125,8.33750346831694e-28
0.13,1.11778441088979e-27
0.135,1.49766259652095e-27
0.14,2.00541303286539e-27
0.145,2.68366064051514e-27
0.15,3.58909765135068e-27
0.155,4.79707895883365e-27
0.16,6.40770299450311e-27
0.165,8.55385322979721e-27
0.17,1.14118256859592e-26
0.175,1.52153651226421e-26
0.18,2.02741913998805e-26
0.185,2.69984368398733e-26
0.19,3.59308600052197e-26
0.195,4.77892834277277e-26
0.2,6.35224645091439e-26
0.205,8.43836048119365e-26
0.21,1.12027004488545e-25
0.215,1.48635068271669e-25
0.22,1.97085087603542e-25
0.225,2.61168116380551e-25
0.23,3.45876028205246e-25
0.235,4.57777753928328e-25
0.24,6.05512090407277e-25
0.245,8.00432786152706e-25
0.25,1.05745241812796e-24
0.255,1.3961456154033e-24
0.26,1.84219041528482e-24
0.265,2.4292501917026e-24
0.27,3.20142927313773e-24
0.275,4.21647514182977e-24
0.28,5.54995168016078e-24
0.285,7.30067486518587e-24
0.29,9.59778940416896e-24
0.295,1.26099787791148e-23
0.3,1.65574521279791e-23
0.305,2.17275560782729e-23
0.31,2.84951492422236e-23
0.315,3.73493162664462e-23
0.32,4.89287324917361e-23
0.325,6.40693624743808e-23
0.33,8.38710155454451e-23
0.335,1.09795615658017e-22
0.34,1.43824827357624e-22
0.345,1.88740000900856e-22
0.35,2.48672572340401e-22
0.355,3.30278719231825e-22
0.36,4.45387236794898e-22
0.365,6.17155594566277e-22
0.37,8.94591697154808e-22
0.375,1.38696938594443e-21
0.38,2.34531464954025e-21
0.385,4.35457642159054e-21
0.39,8.78429078846186e-21
0.395,1.88386074166116e-20
0.4,4.19858296207666e-20
0.405,9.55394326114662e-20
0.41,2.19384508601909e-19
0.415,5.04782937371249e-19
0.42,1.15908513417377e-18
0.425,2.65001880156116e-18
0.43,6.02499703365244e-18
0.435,1.36124269474411e-17
0.44,3.05504194039818e-17
0.445,6.80939313437624e-17
0.45,1.50715257976741e-16
0.455,3.31233635325135e-16
0.46,7.22809043462984e-16
0.465,1.56608497285646e-15
0.47,3.36902578847581e-15
0.475,7.19594037214503e-15
0.48,1.52603050873825e-14
0.485,3.213144732681e-14
0.49,6.71719832952892e-14
0.495,1.39423670391212e-13
0.5,2.87326114349454e-13
0.505,5.87900475090144e-13
0.51,1.19432513181523e-12
0.515,2.40896968409747e-12
0.52,4.82425298568574e-12
0.525,9.59221210736101e-12
0.53,1.89364001421033e-11
0.535,3.71164142801183e-11
0.54,7.22311524440795e-11
0.545,1.39563872443225e-10
0.55,2.67738862167734e-10
0.555,5.09964270943426e-10
0.56,9.64401815807431e-10
0.565,1.81078222284643e-09
0.57,3.37570399592333e-09
0.575,6.24816408335118e-09
0.58,1.14823406435116e-08
0.585,2.09506914112299e-08
0.59,3.79538839817195e-08
0.595,6.8265931988287e-08
0.6,1.21910680116617e-07
0.605,2.16157056057796e-07
0.61,3.80528344710694e-07
0.615,6.65111626131463e-07
0.62,1.15422904608318e-06
0.625,1.9887463297635e-06
0.63,3.40217552174206e-06
0.635,5.77861781669799e-06
0.64,9.74498469341074e-06
0.645,1.63165479907351e-05
0.65,2.7124724530443e-05
0.655,4.47705389346531e-05
0.66,7.33684325115149e-05
0.665,0.000119375743990276
0.67,0.00019284699423444
0.675,0.000309314008723521
0.68,0.000492579390571188
0.685,0.000778830260203049
0.69,0.0012226420526352
0.695,0.00190566156028218
0.7,0.00294905009997534
0.705,0.00453115021322055
0.71,0.00691233378483311
0.715,0.0104696189418541
0.72,0.0157444314105126
0.725,0.0235078558921818
0.73,0.03484889328394
0.735,0.0512926212339468
0.74,0.0749567467253787
0.745,0.108756819057113
0.75,0.15667229197662
0.755,0.224087602007292
0.76,0.318224339595586
0.765,0.448682251889147
0.77,0.628107993219245
0.775,0.873010931610932
0.78,1.20474456525734
0.785,1.65066978642835
0.79,2.24551189886361
0.795,3.03291648484357
0.8,4.06719949427263
0.805,5.4152739332261
0.81,7.15871904689551
0.815,9.39593791613794
0.82,12.244326198307
0.825,15.8423489809354
0.83,20.3513954413467
0.835,25.9572537389569
0.84,32.8710233042932
0.845,41.3292608624411
0.85,51.5931429240437
0.855,63.9464240869016
0.86,78.6919803100457
0.865,96.1467520835652
0.87,116.634946287742
0.875,140.479418781953
0.88,167.991242429109
0.885,199.457565871207
0.89,235.127983722858
0.895,275.199763911958
0.9,319.802405863443
0.905,368.982125737516
0.91,422.686972507531
0.915,480.753361266283
0.92,542.894857967715
0.925,608.694054101452
0.93,677.598323790149
0.935,748.920155553531
0.94,821.842596111955
0.945,895.43013777669
0.95,968.645132122807
0.955,1040.36953279564
0.96,1109.43147505831
0.965,1174.63590729115
0.97,1234.7982197621
0.975,1288.77958820155
0.98,1335.52258199135
0.985,1374.08549387206
0.99,1403.67384015634
0.995,1423.66756203818
1,1433.64262796431
1.005,1433.38598606085
1.01,1422.90313021326
1.015,1402.4179045216
1.02,1372.364555852
1.025,1333.37242858439
1.03,1286.24405496913
1.035,1231.92770624743
1.04,1171.48571502265
1.045,1106.06004449796
1.05,1036.83665731002
1.055,965.010224364533
1.06,891.750617148676
1.065,818.172455885244
1.07,745.308755555944
1.075,674.089440331931
1.08,605.325203949836
1.085,539.696898682186
1.09,477.750356911993
1.095,419.896302368078
1.1,366.414804646852
1.105,317.463578454425
1.11,273.089331509928
1.115,233.241321678731
1.12,197.786290551855
1.125,166.523990465574
1.13,139.202606045542
1.135,115.533479917142
1.14,95.2046752299026
1.145,77.8930356522965
1.15,63.2745282174777
1.155,51.032769118982
1.16,40.8657323290411
1.165,32.4907226279465
1.17,25.6477568985265
1.175,20.1015404656845
1.18,15.6422501677428
1.185,12.0853449364405
1.19,9.27062068955179
1.195,7.06071230433245
1.2,5.33922432815416
1.205,4.00864666538799
1.21,2.98818416932009
1.215,2.21160183584424
1.22,1.62516164077783
1.225,1.18570402283904
1.23,0.858907209277142
1.235,0.617741275201051
1.24,0.441121002906258
1.245,0.312752038707488
1.25,0.220158169612231
1.255,0.153873322554149
1.26,0.106779661078652
1.265,0.0735724667885407
1.27,0.0503329324549674
1.275,0.0341912018102779
1.28,0.0230636707270108
1.285,0.0154504812871645
1.29,0.0102811182469435
1.295,0.00679793239579118
1.3,0.00446918644112438
1.305,0.00292480009125204
1.31,0.00190934201969166
1.315,0.00124797629754599
1.32,0.000822031195436397
1.325,0.000551638075230382
1.33,0.000383510256527135
1.335,0.000282420091058385
1.34,0.000225309989710766
1.345,0.000197260810603176
1.35,0.000188757242102751
1.355,0.000193850234437568
1.36,0.000208934067097167
1.365,0.000231940715990396
1.37,0.000261815050198744
1.375,0.000298177440761022
1.38,0.000341110481689304
1.385,0.000391027366880597
1.39,0.000448593741181285
1.395,0.000514684520668024
1.4,0.000590363672824459
1.405,0.000676879266577269
1.41,0.000775668948986919
1.415,0.000888372866859596
1.42,0.00101685226078621
1.425,0.00116321274136469
1.43,0.00132983176324294
1.435,0.00151939014177111
1.44,0.00173490767471191
1.445,0.00197978307991196
1.45,0.00225783856624628
1.455,0.00257336943680057
1.46,0.0029311991910855
1.465,0.00333674065395283
1.47,0.00379606371712029
1.475,0.00431597033752013
1.48,0.00490407749679322
1.485,0.00556890888927391
1.49,0.00631999617250849
1.495,0.00716799068525225
1.5,0.00812478661340281
1.505,0.00920365666477117
1.51,0.0104194013992398
1.515,0.011788513451957
1.52,0.0133293579839765
1.525,0.0150623707973871
1.53,0.0170102756606544
1.535,0.0191983225047917
1.54,0.0216545482722258
1.545,0.0244100623279493
1.55,0.027499358476835
1.555,0.0309606557719117
1.56,0.0348362704459572
1.565,0.0391730214529757
1.57,0.0440226722668941
1.575,0.0494424117520598
1.58,0.0554953770936529
1.585,0.0622512219557369
1.59,0.0697867332200413
1.595,0.0781864998493556
1.6,0.0875436376151279
1.605,0.0979605736290106
1.61,0.109549894822002
1.615,0.122435264721781
1.62,0.136752413088022
1.625,0.152650203175813
1.63,0.170291781607964
1.635,0.189855816046399
1.64,0.211537826060083
1.645,0.23555161279009
1.65,0.26213079321028
1.655,0.291530444972461
1.66,0.324028868006216
1.665,0.359929469213436
1.67,0.399562776753982
1.675,0.443288590559093
1.68,0.491498275830852
1.685,0.544617206386151
1.69,0.603107364779458
1.695,0.667470106186982
1.7,0.738249093052431
1.705,0.816033407477848
1.71,0.901460848288625
1.715,0.99522141960584
1.72,1.09806101761764
1.725,1.21078532205084
1.73,1.33426389859964
1.735,1.46943451826682
1.74,1.61730769920899
1.745,1.7789714762483
1.75,1.9555964027126
1.755,2.14844078869193
1.76,2.35885617914571
1.765,2.5882930745587
1.77,2.83830689602083
1.775,3.1105641956919
1.78,3.40684911260385
1.785,3.72907007264726
1.79,4.07926673038156
1.795,4.45961714899797
1.8,4.87244521334741
1.805,5.32022826942137
1.81,5.80560498203982
1.815,6.33138340075674
1.82,6.90054922213987
1.825,7.51627423461764
1.83,8.18192493001443
1.835,8.90107126371682
1.84,9.67749554313185
1.845,10.5152014217171
1.85,11.4184229733866
1.855,12.3916338195314
1.86,13.4395562782477
1.865,14.5671705026453
1.87,15.7797235723232
1.875,17.0827384992619
1.88,18.4820231065014
1.885,19.98367873506
1.89,21.5941087316298
1.895,23.3200266666539
1.9,25.1684642294863
1.905,27.1467787444627
1.91,29.2626602488916
1.915,31.5241380712349
1.92,33.9395868450976
1.925,36.5177318921272
1.93,39.2676539045327
1.935,42.1987928557253
1.94,45.3209510655598
1.945,48.6442953448558
1.95,52.1793581423233
1.955,55.9370376157425
1.96,59.9285965482656
1.965,64.1656600300671
1.97,68.6602118252745
1.975,73.4245893442144
1.98,78.4714771415114
1.985,83.8138988615285
1.99,89.4652075540476
1.995,95.4390742849884
2,101.749474969377
2.005,108.410675356718
2.01,115.437214102416
2.015,122.843883862969
2.02,130.645710357284
2.025,138.857929341737
2.03,147.495961452415
2.035,156.575384874468
2.04,166.111905805548
2.045,176.121326688004
2.05,186.619512192786
2.055,197.622352946907
2.06,209.145727005746
2.065,221.205459081554
2.07,233.817277550041
2.075,246.99676926805
2.08,260.759332246858
2.085,275.12012623765
2.09,290.094021298147
2.095,305.695544422067
2.1,321.938824326212
2.105,338.837534503238
2.11,356.404834661638
2.115,374.653310688085
2.12,393.594913280881
2.125,413.240895416892
2.13,433.601748827806
2.135,454.687139674885
2.14,476.505843624362
2.145,499.065680538323
2.15,522.373449008097
2.155,546.434860968833
2.16,571.254476644969
2.165,596.835640086585
2.17,623.180415566079
2.175,650.289525113182
2.18,678.162287473875
2.185,706.79655878519
2.19,736.188675263213
2.195,766.333398205592
2.2,797.223861612544
2.205,828.851522731661
2.21,861.206115831598
2.215,894.275609508011
2.22,928.046167821831
2.225,962.502115564976
2.23,997.62590794206
2.235,1033.3981049483
2.24,1069.79735071389
2.245,1106.80035807332
2.25,1144.38189860467
2.255,1182.51479836898
2.26,1221.16993956251
2.265,1260.31626827677
2.27,1299.92080854086
2.275,1339.94868279903
2.28,1380.36313895342
2.285,1421.12558407752
2.29,1462.19562488004
2.295,1503.531114972
2.3,1545.08820896194
2.305,1586.82142337502
2.31,1628.68370436219
2.315,1670.62650213514
2.32,1712.59985203165
2.325,1754.55246208485
2.33,1796.43180693826
2.335,1838.18422791692
2.34,1879.75503903366
2.345,1921.08863867838
2.35,1962.12862670768
2.355,2002.81792662238
2.36,2043.09891249142
2.365,2082.91354025273
2.37,2122.20348299497
2.375,2160.91026979872
2.38,2198.97542769198
2.385,2236.34062625299
2.39,2272.94782437301
2.395,2308.73941867416
2.4,2343.65839306094
2.405,2377.64846887103
2.41,2410.65425507961
2.415,2442.62139800283
2.42,2473.49672993998
2.425,2503.22841619085
2.43,2531.76609988393
2.435,2559.06104405323
2.44,2585.06627040676
2.445,2609.73669423725
2.45,2633.02925493629
2.455,2654.90304158652
2.46,2675.31941312242
2.465,2694.24211256908
2.47,2711.63737488952
2.475,2727.47402799504
2.48,2741.72358649907
2.485,2754.36033782342
2.49,2765.36142029648
2.495,2774.70689291511
2.5,2782.37979647629
2.505,2788.36620582044
2.51,2792.65527296543
2.515,2795.23926094876
2.52,2796.11356823481
2.525,2795.27674358416
2.53,2792.73049132278
2.535,2788.47966699001
2.54,2782.53226338525
2.545,2774.89938707445
2.55,2765.5952254583
2.555,2754.63700454387
2.56,2742.04493760101
2.565,2727.84216492316
2.57,2712.05468494907
2.575,2694.71127703804
2.58,2675.8434162249
2.585,2655.48518031375
2.59,2633.67314969932
2.595,2610.4463003335
2.6,2585.84589028023
2.605,2559.9153403257
2.61,2532.70010913198
2.615,2504.24756344053
2.62,2474.60684384812
2.625,2443.82872669075
2.63,2411.96548258141
2.635,2379.07073215551
2.64,2345.19929958199
2.645,2310.40706440074
2.65,2274.75081224583
2.655,2238.2880850105
2.66,2201.07703100413
2.665,2163.17625564209
2.67,2124.6446731986
2.675,2085.54136013881
2.68,2045.92541053053
2.685,2005.85579401774
2.69,1965.39121681819
2.695,1924.58998618525
2.7,1883.50987875048
2.705,1842.20801313816
2.71,1800.74072721669
2.715,1759.16346032343
2.72,1717.53064077131
2.725,1675.89557891554
2.73,1634.31036602855
2.735,1592.82577920053
2.74,1551.49119245193
2.745,1510.35449421309
2.75,1469.46201129498
2.755,1428.85843944446
2.76,1388.58678054677
2.765,1348.68828650821
2.77,1309.20240982287
2.775,1270.16676079876
2.78,1231.61707139176
2.785,1193.58716556923
2.79,1156.10893610035
2.795,1119.21232764665
2.8,1082.92532600394
2.805,1047.27395332593
2.81,1012.28226914107
2.815,977.972376956182
2.82,944.364436224778
2.825,911.47667944376
2.83,879.325434129598
2.835,847.925149414398
2.84,817.288426993145
2.845,787.426056146083
2.85,758.347052554459
2.855,730.058700623829
2.86,702.56659902666
2.865,675.87470917503
2.87,649.985406334834
2.875,624.899533094847
2.88,600.616454907366
2.885,577.134117421741
2.89,554.449105337871
2.895,532.556702513637
2.9,511.450953068113
2.905,491.124723231185
2.91,471.569763699808
2.915,452.776772271442
2.92,434.735456536164
2.925,417.434596420381
2.93,400.86210638699
2.935,385.005097109017
2.94,369.849936446245
2.945,355.382309566955
2.95,341.587278069565
2.955,328.44933797163
2.96,315.95247644623
2.965,304.08022719818
2.97,292.815724384655
2.975,282.141754996717
2.98,272.040809629732
2.985,262.495131581795
2.99,253.486764229927
2.995,244.99759664401
3,237.009407408036
3.005,229.503906627372
3.01,222.462776109232
3.015,215.867707711493
3.02,209.700439862291
3.025,203.942792259541
3.03,198.576698765614
3.035,193.584238517903
3.04,188.947665280857
3.045,184.649435069367
3.05,180.672232077129
3.055,176.998992946713
3.06,173.612929420766
3.065,170.497549415848
3.07,167.636676562094
3.075,165.014468253068
3.08,162.615432251
3.085,160.424441892975
3.09,158.426749943741
3.095,156.608001140549
3.1,154.954243474915
3.105,153.451938255462
3.11,152.087968995021
3.115,150.849649164053
3.12,149.72472885121
3.125,148.701400370454
3.13,147.768302852769
3.135,146.914525858973
3.14,146.129612048703
3.145,145.403558939119
3.15,144.726819785462
3.155,144.090303614215
3.16,143.485374438278
3.165,142.903849682384
3.17,142.33799784585
3.175,141.780535428749
3.18,141.224623146764
3.185,140.663861459183
3.19,140.092285433953
3.195,139.504358973224
3.2,138.894968422487
3.205,138.25941558624
3.21,137.593410173061
3.215,136.893061693049
3.22,136.154870830762
3.225,135.375720317127
3.23,134.552865324168
3.235,133.683923406906
3.24,132.766864017346
3.245,131.799997616101
3.25,130.781964407872
3.255,129.711722727709
3.26,128.588537105729
3.265,127.411966038656
3.27,126.18184949732
3.275,124.898296199881
3.28,123.561670681275
3.285,122.172580189899
3.29,120.73186144315
3.295,119.240567273851
3.3,117.699953199983
3.305,116.111463950394
3.31,114.47671997933
3.315,112.797504002675
3.32,111.075747588686
3.325,109.313517835843
3.33,107.513004170067
3.335,105.676505293088
3.34,103.806416313172
3.345,101.905216088626
3.35,99.9754548136842
3.355,98.019741875326
3.36,96.0407340084742
3.365,94.0411237757697
3.37,92.0236283967409
3.375,89.9909789497235
3.38,87.9459099683035
3.385,85.8911494523983
3.39,83.829409312338
3.395,81.7633762624928
3.4,79.6957031791147
3.405,77.6290009351304
3.41,75.5658307226585
3.415,73.5086968720298
3.42,71.4600401740829
3.425,69.4222317104973
3.43,67.3975671949235
3.435,65.3882618256905
3.44,63.3964456489201
3.445,61.4241594289694
3.45,59.4733510212682
3.455,57.5458722408247
3.46,55.643476217949
3.465,53.767815231104
3.47,51.9204390052341
3.475,50.1027934624647
3.48,48.3162199107019
3.485,46.5619546544069
3.49,44.8411290106757
3.495,43.154769712722
3.5,41.5037996819465
3.505,39.8890391489806
3.51,38.311207103413
3.515,36.7709230513524
3.52,35.2687090595402
3.525,33.8049920644071
3.53,32.3801064242604
3.535,30.994296692701
3.54,29.6477205913806
3.545,28.340452160338
3.55,27.072485064373
3.555,25.8437360342369
3.56,24.6540484218288
3.565,23.5031958490798
3.57,22.3908859307804
3.575,21.3167640522485
3.58,20.2804171834463
3.585,19.2813777119195
3.59,18.3191272777526
3.595,17.3931005945953
3.6,16.5026892417165
3.605,15.6472454129724
3.61,14.8260856095309
3.615,14.0384942641678
3.62,13.2837272859303
3.625,12.5610155149552
3.63,11.8695680782148
3.635,11.2085756379436
3.64,10.5772135254677
3.645,9.97464475411233
3.65,9.40002290579275
3.655,8.85249488679759
3.66,8.3312035491531
3.665,7.83529017479742
3.67,7.36389682060394
3.675,6.91616852306128
3.68,6.49125536214811
3.685,6.0883143846274
3.69,5.7065113876289
3.695,5.34502256398776
3.7,5.00303601136016
3.705,4.67975310764556
3.71,4.37438975570625
3.715,4.08617750079175
3.72,3.81436452444662
3.725,3.5582165190069
3.73,3.31701744707412
3.735,3.09007019059698
3.74,2.8766970943914
3.745,2.67624040909106
3.75,2.48806263864459
3.755,2.31154679756414
3.76,2.14609658318436
3.765,1.99113646821476
3.77,1.84611171886154
3.775,1.7104883437616
3.78,1.58375297891272
3.785,1.46541271370181
3.79,1.35499486303079
3.795,1.25204669041804
3.8,1.15613508681548
3.805,1.06684620972898
3.81,0.983785087064434
3.815,0.906575189946561
3.82,0.834857978572769
3.825,0.768292424973111
3.83,0.70655451635059
3.835,0.649336742475538
3.84,0.596347570405004
3.845,0.547310909594362
3.85,0.501965570265044
3.855,0.460064717690452
3.86,0.421375324862917
3.865,0.385677625808876
3.87,0.352764571628151
3.875,0.322441291147136
3.88,0.294524557895339
3.885,0.268842264940825
3.89,0.245232908953024
3.895,0.223545084701537
3.9,0.203636991047277
3.905,0.185375949337814
3.91,0.168637934982237
3.915,0.153307122852332
3.92,0.139275447036493
3.925,0.126442175360415
3.93,0.114713498984229
3.935,0.10400213728932
3.94,0.0942269581792408
3.945,0.0853126138379391
3.95,0.0771891919145796
3.955,0.0697918820373657
3.96,0.0630606574986865
3.965,0.0569399719003182
3.97,0.0513784705000153
3.975,0.0463287159592903
3.98,0.041746928156217
3.985,0.037592737696332
3.99,0.0338289527288544
3.995,0.0304213386541502
4,0.0273384102913124
4.005,0.0245512360615865
4.01,0.0220332537338371
4.015,0.0197600972720106
4.02,0.0177094343213056
4.025,0.0158608138692364
4.03,0.0141955236196851
4.035,0.0126964566221285
4.04,0.011347986704238
4.045,0.0101358522637681
4.05,0.00904704798482315
4.055,0.00806972405404318
4.06,0.00719309246376099
4.065,0.00640734000158746
4.07,0.00570354753900905
4.075,0.00507361524527548
4.08,0.0045101933669803
4.085,0.00400661822816073
4.09,0.00355685312035091
4.095,0.0031554337667118
4.1,0.0027974180590346
4.105,0.00247833978099365
4.11,0.00219416604543235
4.115,0.00194125818764125
4.12,0.00171633587047402
4.125,0.00151644417069751
4.13,0.00133892342914847
4.135,0.00118138166003735
4.14,0.001041669327074
4.145,0.000917856305969885
4.15,0.000808210864281701
4.155,0.00071118050049193
4.16,0.000625374494665939
4.165,0.000549548032981528
4.17,0.000482587777895631
4.175,0.000423498764698408
4.18,0.000371392513714284
4.185,0.000325476255450882
4.19,0.000285043173581534
4.195,0.000249463577787142
4.2,0.000218176925192593
4.205,0.000190684615426207
4.21,0.000166543490223492
4.215,0.000145359974004935
4.22,0.000126784796998295
4.225,0.000110508247265701
4.23,9.62559024517073e-05
4.235,8.37847962073782e-05
