Retention Time (min),Signal (arb. units)
0,5.13270668363368e-27
0.005,6.5330786449114e-27
0.01,8.31190620002798e-27
0.015,1.05704795049981e-26
0.02,1.34369298878654e-26
0.025,1.7073270506407e-26
0.03,2.16842646517491e-26
0.035,2.75285910739152e-26
0.04,3.4932894932563e-26
0.045,4.43094621483307e-26
0.05,5.6178441481333e-26
0.055,7.11957718510391e-26
0.06,9.01882637590062e-26
0.065,1.14197647518821e-25
0.07,1.44535855163109e-25
0.075,1.82854369543724e-25
0.08,2.31231180795767e-25
0.085,2.9227977118128e-25
0.09,3.69285646789999e-25
0.095,4.6637730128394e-25
0.1,5.88740198091265e-25
0.105,7.42884474066663e-25
0.11,9.36979699837298e-25
0.115,1.1812733039094e-24
0.12,1.48861333266066e-24
0.125,1.87510126652069e-24
0.13,2.3609068787778e-24
0.135,2.97128489775987e-24
0.14,3.73784287409968e-24
0.145,4.70012160500283e-24
0.15,5.90756427307119e-24
0.155,7.42196879198343e-24
0.16,9.32054054576102e-24
0.165,1.16996907859297e-23
0.17,1.46797606722253e-23
0.175,1.84108938594748e-23
0.18,2.30803335555246e-23
0.185,2.89214854512002e-23
0.19,3.62251687404356e-23
0.195,4.53535771544495e-23
0.2,5.67575948849415e-23
0.205,7.09982638158379e-23
0.21,8.87733851829867e-23
0.215,1.10950468683346e-22
0.22,1.38607525023399e-22
0.225,1.73083546015425e-22
0.23,2.16040944398269e-22
0.235,2.69542751689527e-22
0.24,3.36148018727812e-22
0.245,4.19029657233066e-22
0.25,5.22119934816785e-22
0.255,6.50290030868629e-22
0.26,8.09571526028137e-22
0.265,1.00742949380648e-21
0.27,1.25309906289128e-21
0.275,1.55800001240871e-21
0.28,1.93624725919593e-21
0.285,2.40527912904436e-21
0.29,2.98663023494099e-21
0.295,3.70688181173647e-21
0.3,4.59882971821491e-21
0.305,5.70291930577521e-21
0.31,7.06900732210123e-21
0.315,8.75852439852756e-21
0.32,1.08471279835598e-20
0.325,1.34279554658419e-20
0.33,1.66156114462351e-20
0.335,2.05510526020313e-20
0.34,2.54075694651919e-20
0.345,3.13981080773833e-20
0.35,3.87842275415191e-20
0.355,4.78870539634464e-20
0.36,5.91006695879072e-20
0.365,7.29084710042797e-20
0.37,8.99031456627702e-20
0.375,1.10811055866925e-19
0.38,1.36521989043644e-19
0.385,1.68125438653007e-19
0.39,2.06954829087868e-19
0.395,2.54641399382371e-19
0.4,3.13179825438219e-19
0.405,3.85008102027453e-19
0.41,4.73104740117837e-19
0.415,5.81106981732729e-19
0.42,7.13454517840164e-19
0.425,8.75564145082044e-19
0.43,1.07404195366649e-18
0.435,1.31694105381979e-18
0.44,1.61407459546664e-18
0.445,1.97739602530096e-18
0.45,2.42146133238291e-18
0.455,2.96399175401006e-18
0.46,3.62656057284243e-18
0.465,4.43543519724518e-18
0.47,5.42261748625103e-18
0.475,6.62714469128764e-18
0.48,8.09674700244961e-18
0.485,9.8900180810818e-18
0.49,1.20793661983668e-17
0.495,1.47552216238427e-17
0.5,1.80323681039839e-17
0.505,2.2060008135715e-17
0.51,2.7038575220268e-17
0.515,3.32489564453336e-17
0.52,4.11047772542702e-17
0.525,5.12477533556833e-17
0.53,6.47235732924909e-17
0.535,8.33082086917261e-17
0.54,1.10114504059005e-16
0.545,1.50719164552569e-16
0.55,2.15252011263831e-16
0.555,3.2225658438953e-16
0.56,5.05796027194863e-16
0.565,8.28475565003459e-16
0.57,1.40519789225323e-15
0.575,2.44628986969177e-15
0.58,4.33541295484447e-15
0.585,7.76961125660361e-15
0.59,1.4009788760092e-14
0.595,2.53264205975792e-14
0.6,4.57886350345883e-14
0.605,8.2654055728624e-14
0.61,1.48804240853671e-13
0.615,2.66990410054405e-13
0.62,4.77196959679088e-13
0.625,8.49346396807886e-13
0.63,1.50510703218866e-12
0.635,2.6551315698837e-12
0.64,4.66231563257019e-12
0.645,8.14869915606537e-12
0.65,1.417518051863e-11
0.655,2.45420630009251e-11
0.66,4.22890518418632e-11
0.665,7.25227113482726e-11
0.67,1.23778666537664e-10
0.675,2.1025235198889e-10
0.68,3.55432875949112e-10
0.685,5.97991329535742e-10
0.69,1.00127177586681e-09
0.695,1.66850814810492e-09
0.7,2.76709198325321e-09
0.705,4.56706838615023e-09
0.71,7.50187652039153e-09
0.715,1.22636758623597e-08
0.72,1.99521491919916e-08
0.725,3.23055330389908e-08
0.73,5.20573795692694e-08
0.735,8.34844957409279e-08
0.74,1.3324393961586e-07
0.745,2.11644602532863e-07
0.75,3.34568472973043e-07
0.755,5.26357611118362e-07
0.76,8.24128381245597e-07
0.765,1.28418295138424e-06
0.77,1.99148478291252e-06
0.775,3.07358441336197e-06
0.78,4.72097126349348e-06
0.785,7.21664972230533e-06
0.79,1.09788778286108e-05
0.795,1.66225762740017e-05
0.8,2.50470609154083e-05
0.805,3.75606643047038e-05
0.81,5.60567367159818e-05
0.815,8.32607683319295e-05
0.82,0.000123075347525867
0.825,0.00018105885998723
0.83,0.000265085850245897
0.835,0.000386252555432713
0.84,0.000560111176797778
0.845,0.000808342040245404
0.85,0.00116100515323484
0.855,0.00165955321349538
0.86,0.00236083846098172
0.865,0.00334240763600286
0.87,0.00470945457000493
0.875,0.0066038904871157
0.88,0.00921609976772677
0.885,0.0128000753495511
0.89,0.017692774355255
0.895,0.0243387015488737
0.9,0.0333209155255721
0.905,0.0453998585546598
0.91,0.0615616324853049
0.915,0.0830775747490481
0.92,0.111577222350553
0.925,0.149136976898122
0.93,0.198386985798897
0.935,0.262638915524092
0.94,0.346037390084822
0.945,0.453737875209378
0.95,0.592113675967467
0.955,0.768994449207313
0.96,0.993938176232684
0.965,1.27853785873906
0.97,1.63676325616472
0.975,2.08533674266969
0.98,2.64414080063045
0.985,3.33665276827863
0.99,4.19040021890356
0.995,5.23742778240696
1,6.51476336297769
1.005,8.06486862046877
1.01,9.93605535715449
1.015,12.1828462056076
1.02,14.866254897992
1.025,18.0539585922582
1.03,21.8203324429228
1.035,26.2463150600196
1.04,31.4190729379826
1.045,37.4314325958825
1.05,44.3810512778026
1.055,52.3693008146738
1.06,61.4998447980697
1.065,71.8768966499446
1.07,83.6031554965787
1.075,96.7774278798088
1.08,111.49195606448
1.085,127.829487711274
1.09,145.860136542724
1.095,165.638098787084
1.1,187.198304987821
1.105,210.55310048347
1.11,235.689059709238
1.115,262.564048649004
1.12,291.104655502385
1.125,321.204111228496
1.13,352.720818510188
1.135,385.477599442827
1.14,419.261758693933
1.145,453.82604005309
1.15,488.890530512579
1.155,524.145537882831
1.16,559.255436319598
1.165,593.863440136655
1.17,627.597231223065
1.175,660.075330755532
1.18,690.914073257192
1.185,719.73501197404
1.19,746.172560511104
1.195,769.881658022094
1.2,790.545235065597
1.205,807.881255302409
1.21,821.649114918983
1.215,831.655197024139
1.22,837.757401865446
1.225,839.86850472533
1.23,837.958230588223
1.235,832.053976603475
1.24,822.240158245962
1.245,808.656200985224
1.25,791.493244249028
1.255,770.989666591294
1.26,747.425578478995
1.265,721.116460468548
1.27,692.406148534974
1.275,661.659384104487
1.28,629.254153487502
1.285,595.574039896621
1.29,561.000801450081
1.295,525.907371262629
1.3,490.651451985934
1.305,455.569848298548
1.31,420.973648347276
1.315,387.144330575238
1.32,354.330837302332
1.325,322.747622335185
1.33,292.573648109246
1.335,263.952279532034
1.34,236.991997683283
1.345,211.767837443392
1.35,188.323439297064
1.355,166.673597056142
1.36,146.807179879812
1.365,128.690308343955
1.37,112.269669856335
1.375,97.4758677373461
1.38,84.2267100182102
1.385,72.4303576508236
1.39,61.9882665902536
1.395,52.7978733662728
1.4,44.7549886478741
1.405,37.7558773686909
1.41,31.6990167798308
1.415,26.4865350071913
1.42,22.0253421076401
1.425,18.2279731470563
1.43,15.0131684651521
1.435,12.3062201312174
1.44,10.0391157801815
1.445,8.15051174522574
1.45,6.58556689680138
1.455,5.29566709720432
1.46,4.23806792371933
1.465,3.37548052928942
1.47,2.67562240524204
1.475,2.11075156736213
1.48,1.65719945659841
1.485,1.29491475015014
1.49,1.00702740852702
1.495,0.779439701974651
1.5,0.60044870262308
1.505,0.460402812353123
1.51,0.351393318452336
1.515,0.266980713681555
1.52,0.201954558493413
1.525,0.152124968454166
1.53,0.114143343538638
1.535,0.0853496809818694
1.54,0.0636436937685387
1.545,0.0473769589386413
1.55,0.0352634132920327
1.555,0.0263056722447046
1.56,0.0197348480683452
1.565,0.0149617681275809
1.57,0.011537727443604
1.575,0.00912314186560684
1.58,0.00746269027968276
1.585,0.00636574117249527
1.59,0.00569104716093841
1.595,0.00533485914965494
1.6,0.00522175922080004
1.605,0.00529763876616818
1.61,0.00552435695390618
1.615,0.00587570599527008
1.62,0.00633438566822562
1.625,0.00688975205978096
1.63,0.007536156368159
1.635,0.00827173061357364
1.64,0.00909750984660737
1.645,0.0100168063466409
1.65,0.0110347716188041
1.655,0.0121580977978227
1.66,0.0133948222548365
1.665,0.0147542085304105
1.67,0.0162466838002583
1.675,0.0178838184194567
1.68,0.0196783370865513
1.685,0.0216441541382146
1.69,0.02379642767687
1.695,0.0261516288411737
1.7,0.0287276237011145
1.705,0.0315437661090533
1.71,0.034621000450912
1.715,0.0379819736820445
1.72,0.0416511563477508
1.725,0.0456549725140018
1.73,0.0500219386953978
1.735,0.0547828119832602
1.74,0.0599707476604401
1.745,0.06562146665043
1.75,0.0717734331934492
1.755,0.0784680431760129
1.76,0.0857498235664105
1.765,0.0936666434286947
1.77,0.102269937003749
1.775,0.111614939358757
1.78,0.121760935116524
1.785,0.132771520784065
1.79,0.144714881205763
1.795,0.157664080670444
1.8,0.171697369203765
1.805,0.186898504577458
1.81,0.203357090564983
1.815,0.22116893196904
1.82,0.240436406939858
1.825,0.261268857094263
1.83,0.283782995933834
1.835,0.308103336046031
1.84,0.334362635554634
1.845,0.362702364265179
1.85,0.393273189926895
1.855,0.426235485005016
1.86,0.461759854325788
1.865,0.500027683921077
1.87,0.541231711359766
1.875,0.58557661780922
1.88,0.63327964202144
1.885,0.684571216385354
1.89,0.739695625128411
1.895,0.798911684687514
1.9,0.862493446200733
1.905,0.93073091999753
1.91,1.0039308218858
1.915,1.0824173409491
1.92,1.1665329284768
1.925,1.2566391075533
1.93,1.35311730273016
1.935,1.45636968909676
1.94,1.56682005995066
1.945,1.68491471214886
1.95,1.81112334809495
1.955,1.94593999318535
1.96,2.08988392739988
1.965,2.24350062957876
1.97,2.40736273277936
1.975,2.58207098895163
1.98,2.76825524101235
1.985,2.966575400234
1.99,3.17772242669592
1.995,3.40241931037282
2,3.64142205025929
2.005,3.89552062874971
2.01,4.16553997831035
2.015,4.45234093729626
2.02,4.75682119157914
2.025,5.07991619846521
2.03,5.4226000891948
2.035,5.78588654612795
2.04,6.17082965053494
2.045,6.57852469672609
2.05,7.01010896807503
2.055,7.46676247031184
2.06,7.9497086172907
2.065,8.46021486426975
2.07,8.99959328358171
2.075,9.56920107742173
2.08,10.1704410223369
2.085,10.8047618398693
2.09,11.4736584876828
2.095,12.178672365399
2.1,12.9213914292672
2.105,13.7034502097221
2.11,14.5265297258126
2.115,15.3923572904461
2.12,16.3027062003625
2.125,17.2593953047489
2.13,18.2642884464188
2.135,19.3192937695214
2.14,20.4263628878053
2.145,21.587489907549
2.15,22.8047102993848
2.155,24.0800996133817
2.16,25.4157720319211
2.165,26.813878755099
2.17,28.2766062136114
2.175,29.8061741043437
2.18,31.4048332441688
2.185,33.0748632377835
2.19,34.8185699557671
2.195,36.6382828194288
2.2,38.5363518894366
2.205,40.515144755666
2.21,42.5770432261984
2.215,44.7244398139144
2.22,46.9597340196788
2.225,49.2853284116963
2.23,51.7036245012325
2.235,54.2170184155366
2.24,56.8278963694772
2.245,59.5386299381026
2.25,62.3515711330664
2.255,65.2690472866101
2.26,68.2933557475712
2.265,71.426758394683
2.27,74.6714759732448
2.275,78.02968226208
2.28,81.5034980785374
2.285,85.0949851301567
2.29,88.8061397224794
2.295,92.6388863333619
2.3,96.595071065016
2.305,100.67645498588
2.31,104.884707375282
2.315,109.221398884727
2.32,113.687994630474
2.325,118.285847232902
2.33,123.016189818983
2.335,127.880129004946
2.34,132.87863787699
2.345,138.012548988622
2.35,143.282547393876
2.355,148.689163736327
2.36,154.232767414403
2.365,159.91355984406
2.37,165.731567840371
2.375,171.686637140032
2.38,177.778426087159
2.385,184.006399505064
2.39,190.369822776945
2.395,196.867756158603
2.4,203.499049346376
2.405,210.262336323527
2.41,217.156030508232
2.415,224.178320226188
2.42,231.327164530616
2.425,238.600289392115
2.43,245.995184280411
2.435,253.509099159542
2.44,261.13904191744
2.445,268.881776250149
2.45,276.733820020174
2.455,284.691444107577
2.46,292.750671771435
2.465,300.907278538286
2.47,309.156792632982
2.475,317.494495966168
2.48,325.915425691288
2.485,334.414376342619
2.49,342.985902564337
2.495,351.624322439105
2.5,360.323721423009
2.505,369.07795689201
2.51,377.880663303301
2.515,386.725257973181
2.52,395.604947471173
2.525,404.512734628219
2.53,413.441426154861
2.535,422.383640863321
2.54,431.331818485417
2.545,440.278229076234
2.55,449.214982991452
2.555,458.134041424197
2.56,467.0272274853
2.565,475.88623780881
2.57,484.702654662656
2.575,493.467958542398
2.58,502.173541224108
2.585,510.810719250554
2.59,519.370747823067
2.595,527.844835069732
2.6,536.22415665887
2.605,544.499870725214
2.61,552.663133074656
2.615,560.705112632066
2.62,568.617007095365
2.625,576.390058757851
2.63,584.0155704597
2.635,591.484921628613
2.64,598.789584368733
2.645,605.921139556286
2.65,612.87129289981
2.655,619.631890922446
2.66,626.194936823459
2.665,632.552606176043
2.67,638.697262418468
2.675,644.621472095824
2.68,650.318019809883
2.685,655.779922835132
2.69,661.000445359597
2.695,665.973112309892
2.7,670.691722720805
2.705,675.150362610848
2.71,679.343417326355
2.715,683.265583318102
2.72,686.911879315879
2.725,690.277656868078
2.73,693.358610215078
2.735,696.150785467094
2.74,698.65058905909
2.745,700.854795457464
2.75,702.760554095375
2.755,704.365395515817
2.76,705.667236703937
2.765,706.664385592461
2.77,707.355544726592
2.775,707.739814077274
2.78,707.816692994272
2.785,707.586081293146
2.79,707.048279472815
2.795,706.203988063038
2.8,705.054306103808
2.805,703.600728761278
2.81,701.845144087449
2.815,699.789828933457
2.82,697.437444028847
2.825,694.791028241704
2.83,691.853992036989
2.835,688.630110152783
2.84,685.123513516455
2.845,681.33868042499
2.85,677.280427015818
2.855,672.953897056546
2.86,668.364551083861
2.865,663.518154923717
2.87,658.420767626553
2.875,653.078728852883
2.88,647.498645745972
2.885,641.687379329625
2.89,635.652030470228
2.895,629.399925443199
2.9,622.938601144828
2.905,616.275789991189
2.91,609.419404546372
2.915,602.377521922643
2.92,595.158367995409
2.925,587.770301475951
2.93,580.221797884824
2.935,572.521433468629
2.94,564.677869102495
2.945,556.699834220148
2.95,548.596110812776
2.955,540.375517537171
2.96,532.046893972703
2.965,523.619085065701
2.97,515.100925798644
2.975,506.501226120347
2.98,497.828756171965
2.985,489.092231842168
2.99,480.300300683343
2.995,471.461528219003
3,462.584384670913
3.005,453.677232132663
3.01,444.748312214583
3.015,435.805734183017
3.02,426.857463615048
3.025,417.911311587803
3.03,408.974924419468
3.035,400.05577397715
3.04,391.161148564701
3.045,382.298144401583
3.05,373.473657701855
3.055,364.69437736035
3.06,355.966778251125
3.065,347.297115141319
3.07,338.691417221619
3.075,330.155483252671
3.08,321.694877324918
3.085,313.314925227597
3.09,305.020711420865
3.095,296.817076603406
3.1,288.708615866265
3.105,280.699677422123
3.11,272.794361897833
3.115,264.996522176627
3.12,257.309763775165
3.125,249.7374457394
3.13,242.28268204213
3.135,234.948343464088
3.14,227.737059939535
3.145,220.651223346455
3.15,213.69299072074
3.155,206.864287873123
3.16,200.166813387024
3.165,193.602042975086
3.17,187.171234171731
3.175,180.875431338866
3.18,174.71547096162
3.185,168.691987210923
3.19,162.805417749702
3.195,157.056009759525
3.2,151.44382616467
3.205,145.96875203079
3.21,140.630501115643
3.215,135.428622549687
3.22,130.362507624744
3.225,125.431396669446
3.23,120.634385990641
3.235,115.970434860566
3.24,111.43837253019
3.245,107.036905249802
3.25,102.764623278628
3.255,98.6200078660026
3.26,94.6014381873878
3.265,90.7071982193263
3.27,86.9354835382514
3.275,83.2844080288941
3.28,79.7520104888972
3.285,76.3362611170972
3.29,73.0350678738136
3.295,69.8462827023527
3.3,66.7677076018062
3.305,63.7971005420982
3.31,60.9321812130895
3.315,58.1706366004071
3.32,55.5101263815013
3.325,52.9482881362609
3.33,50.4827423673217
3.335,48.1110973259902
3.34,45.8309536404703
3.345,43.6399087438197
3.35,41.5355610997769
3.355,39.5155142252913
3.36,37.5773805092411
3.365,35.7187848274587
3.37,33.9373679547794
3.375,32.230789775394
3.38,30.5967322933255
3.385,29.0329024453468
3.39,27.5370347191303
3.395,26.1068935798517
3.4,24.7402757088795
3.405,23.4350120585449
3.41,22.1889697273306
3.415,21.0000536601202
3.42,19.8662081784208
3.425,18.7854183457209
3.43,17.7557111733502
3.435,16.7751566723982
3.44,15.8418687573963
3.445,14.9540060075995
3.45,14.1097722918007
3.455,13.3074172626875
3.46,12.5452367267982
3.465,11.8215728961632
3.47,11.1348145277218
3.475,10.4833969565873
3.48,9.86580202919884
3.485,9.28055794234401
3.49,8.72623899396456
3.495,8.20146525157193
3.5,7.7049021439967
3.505,7.23525998208236
3.51,6.79129341380661
3.515,6.37180081917601
3.52,5.97562365009263
3.525,5.60164572023552
3.53,5.24879244983668
3.535,4.91603007006159
3.54,4.60236479152992
3.545,4.30684194133226
3.55,4.02854507271686
3.555,3.76659505143485
3.56,3.52014912254632
3.565,3.28839996130175
3.57,3.07057471152625
3.575,2.8659340147472
3.58,2.6737710331202
3.585,2.49341046902534
3.59,2.32420758402414
3.595,2.1655472196901
3.6,2.01684282265112
3.605,1.87753547601154
3.61,1.74709293915537
3.615,1.62500869777066
3.62,1.51080102577834
3.625,1.40401206069721
3.63,1.30420689383096
3.635,1.21097267652215
3.64,1.12391774358373
3.645,1.0426707548892
3.65,0.966879855979668
3.655,0.89621185842883
3.66,0.830351440595478
3.665,0.769000369287985
3.67,0.711876742765745
3.675,0.658714255408913
3.68,0.609261484300099
3.685,0.563281197879415
3.69,0.520549686757841
3.695,0.480856116702615
3.7,0.444001903742651
3.705,0.409800111281184
3.71,0.378074869047252
3.715,0.348660813666643
3.72,0.321402550586745
3.725,0.296154137047945
3.73,0.272778585756639
3.735,0.251147388881533
3.74,0.231140061965294
3.745,0.212643707317774
3.75,0.195552596434594
3.755,0.17976777096586
3.76,0.165196661743746
3.765,0.151752725364682
3.77,0.139355097811539
3.775,0.127928264593462
3.78,0.117401746875588
3.785,0.10770980306774
3.79,0.098791145339985
3.795,0.0905886705336955
3.8,0.0830492049391557
3.805,0.0761232624147458
3.81,0.0697648153281311
3.815,0.0639310778065603
3.82,0.0585823007911833
3.825,0.0536815783991356
3.83,0.049194665106865
3.835,0.0450898032786803
3.84,0.0413375605756943
3.845,0.0379106767920965
3.85,0.0347839196779348
3.855,0.03193394932023
3.86,0.0293391906671986
3.865,0.0269797137935519
3.87,0.0248371215181958
3.875,0.0228944439991191
3.88,0.0211360399437595
3.885,0.0195475040866284
3.89,0.0181155805994105
3.895,0.016828082112078
3.9,0.0156738140367436
3.905,0.0146425038989766
3.91,0.0137247353940943
3.915,0.0129118868984907
3.92,0.0121960741783451
3.925,0.0115700970500494
3.93,0.0110273897583876
3.935,0.0105619748498706
3.94,0.0101684203296735
3.945,0.00984179990132155
3.95,0.00957765609862329
3.955,0.00937196612934628
3.96,0.00922111025977227
3.965,0.00912184257854986
3.97,0.00907126398718545
3.975,0.0090667972730798
3.98,0.00910616412922889
3.985,0.00918736399256892
3.99,0.00930865458046263
3.995,0.00946853401200032
4,0.00966572440763543
4.005,0.00989915686719364
4.01,0.0101679577324998
4.015,0.0104714360467611
4.02,0.0108090721284441
4.025,0.0111805071826875
4.03,0.0115855338783224
4.035,0.0120240878233264
4.04,0.0124962398760351
4.045,0.0130021892336807
4.05,0.0135422572438296
4.055,0.0141168818880694
4.06,0.0147266128908447
4.065,0.0153721074096853
4.07,0.0160541262662121
4.075,0.0167735306802485
4.08,0.0175312794721376
4.085,0.0183284267009489
4.09,0.0191661197086891
4.095,0.020045597542895
4.1,0.0209681897321093
4.105,0.0219353153907181
4.11,0.0229484826314705
4.115,0.0240092882657265
4.12,0.0251194177730728
4.125,0.0262806455234414
4.13,0.0274948352362424
4.135,0.0287639406623118
4.14,0.0300900064756609
4.145,0.0314751693631198
4.15,0.032921659300985
4.155,0.034431801008725
4.16,0.0360080155706691
4.165,0.0376528222174054
4.17,0.0393688402593537
4.175,0.0411587911656595
4.18,0.043025500782177
4.185,0.0449719016828842
4.19,0.0470010356495931
4.195,0.0491160562753003
4.2,0.0513202316869547
4.205,0.0536169473838204
4.21,0.0560097091879696
4.215,0.058502146303766
4.22,0.0610980144834941
