Retention Time (min),Signal (arb. units)
0,3.04754459341125e-27
0.005,3.51706883945906e-27
0.01,4.05830933519746e-27
0.015,4.68212392011693e-27
0.02,5.4009995262085e-27
0.025,6.22929435324736e-27
0.03,7.18351570524324e-27
0.035,8.28263868846052e-27
0.04,9.54847172224252e-27
0.045,1.10060756720006e-26
0.05,1.26842443943306e-26
0.055,1.46160556045788e-26
0.06,1.68395022570223e-26
0.065,1.93982160896022e-26
0.07,2.23422966544499e-26
0.075,2.57292610614153e-26
0.08,2.96251318376599e-26
0.085,3.41056827898878e-26
0.09,3.92578655900302e-26
0.095,4.51814430391461e-26
0.1,5.19908586537281e-26
0.105,5.98173764269472e-26
0.11,6.88115294168941e-26
0.115,7.91459212865966e-26
0.12,9.10184311600906e-26
0.125,1.04655879271164e-25
0.13,1.20318218987505e-25
0.135,1.38303330030135e-25
0.14,1.58952498232201e-25
0.145,1.82656679169995e-25
0.15,2.09863656653782e-25
0.155,2.41086222615806e-25
0.16,2.76911522637608e-25
0.165,3.18011731514009e-25
0.17,3.65156246192111e-25
0.175,4.19225609531019e-25
0.18,4.8122740803433e-25
0.185,5.52314420502369e-25
0.19,6.33805332992381e-25
0.195,7.27208379192659e-25
0.2,8.34248315027947e-25
0.205,9.56897192830242e-25
0.21,1.09740946465272e-24
0.215,1.25836201731875e-24
0.22,1.44269982476748e-24
0.225,1.65378799752263e-24
0.23,1.89547111619356e-24
0.235,2.17214085753898e-24
0.24,2.48881305973566e-24
0.245,2.85121553030638e-24
0.25,3.26588807817703e-24
0.255,3.74029645338377e-24
0.26,4.28296210724846e-24
0.265,4.90360994600886e-24
0.27,5.61333654604574e-24
0.275,6.424801633632e-24
0.28,7.35244601180535e-24
0.285,8.41273954747772e-24
0.29,9.62446331997206e-24
0.295,1.10090305854241e-23
0.3,1.25908518384979e-23
0.305,1.43977499633687e-23
0.31,1.64614322708838e-23
0.315,1.88180271306636e-23
0.32,2.15086939396416e-23
0.325,2.45803163380064e-23
0.33,2.80862899076006e-23
0.335,3.20874170867124e-23
0.34,3.66529237316872e-23
0.345,4.18616136756205e-23
0.35,4.7803179806576e-23
0.355,5.45796926451254e-23
0.36,6.23072901804562e-23
0.365,7.11180958675444e-23
0.37,8.11623952420072e-23
0.375,9.2611105627206e-23
0.38,1.05658577949818e-22
0.385,1.20525774812759e-22
0.39,1.37463874774067e-22
0.395,1.56758359332615e-22
0.4,1.78733646522848e-22
0.405,2.03758343379766e-22
0.41,2.32251198974244e-22
0.415,2.64687850375608e-22
0.42,3.01608465927898e-22
0.425,3.43626403803267e-22
0.43,3.91438019117144e-22
0.435,4.45833770175668e-22
0.44,5.07710793926266e-22
0.445,5.78087142676024e-22
0.45,6.5811789894539e-22
0.455,7.49113413290345e-22
0.46,8.52559941453282e-22
0.465,9.70142992739064e-22
0.47,1.10377374156294e-21
0.475,1.25561889924702e-21
0.48,1.42813449399251e-21
0.485,1.62410406424478e-21
0.49,1.84668183521131e-21
0.495,2.09944152101135e-21
0.5,2.38643147687923e-21
0.505,2.71223701821437e-21
0.51,3.08205082746583e-21
0.515,3.50175248750169e-21
0.52,3.97799831322097e-21
0.525,4.51832280417929e-21
0.53,5.13125321308039e-21
0.535,5.82643892239156e-21
0.54,6.61479755006241e-21
0.545,7.50867997417914e-21
0.55,8.52205678883398e-21
0.555,9.67072910077957e-21
0.56,1.09725670828184e-20
0.565,1.24477803715401e-20
0.57,1.41192253270194e-20
0.575,1.6012755515612e-20
0.58,1.81576237936401e-20
0.585,2.05869474944231e-20
0.59,2.3338253182228e-20
0.595,2.64541254532367e-20
0.6,2.99829973719795e-20
0.605,3.39801417270665e-20
0.61,3.85089580200967e-20
0.615,4.36427093371023e-20
0.62,4.94669615008596e-20
0.625,5.60831397603094e-20
0.63,6.36138878688168e-20
0.635,7.22113598837365e-20
0.64,8.20703095623741e-20
0.645,9.34490505493665e-20
0.65,1.06703343264579e-19
0.655,1.22341509352156e-19
0.66,1.4111437114974e-19
0.665,1.64162235604903e-19
0.67,1.93255138659428e-19
0.675,2.311852248231e-19
0.68,2.82406716118445e-19
0.685,3.54077812187929e-19
0.69,4.57753397984967e-19
0.695,6.12128768975619e-19
0.7,8.47476159781098e-19
0.705,1.2128004050537e-18
0.71,1.78735044932881e-18
0.715,2.69908955245222e-18
0.72,4.15425190299005e-18
0.725,6.48451324896117e-18
0.73,1.0222069470679e-17
0.735,1.62188109132769e-17
0.74,2.58349773244419e-17
0.745,4.12369886106415e-17
0.75,6.58663495582922e-17
0.755,1.05175876481371e-16
0.76,1.67782483418063e-16
0.765,2.6726727509196e-16
0.77,4.249787126366e-16
0.775,6.74385818504636e-16
0.78,1.06781996011158e-15
0.785,1.68688710430419e-15
0.79,2.65850462451505e-15
0.795,4.17953292910832e-15
0.8,6.5545039431685e-15
0.805,1.02532506841933e-14
0.81,1.59986922559681e-14
0.815,2.49001837740308e-14
0.82,3.86555211934719e-14
0.825,5.9856100195085e-14
0.83,9.24466266531035e-14
0.835,1.42415731050354e-13
0.84,2.18830582853555e-13
0.845,3.35382542519886e-13
0.85,5.12689843535177e-13
0.855,7.81718520353242e-13
0.86,1.18885045049254e-12
0.865,1.80337058908086e-12
0.87,2.72849723950067e-12
0.875,4.11758645287585e-12
0.88,6.19787090980206e-12
0.885,9.30513892147929e-12
0.89,1.3934252917074e-11
0.895,2.08125348868514e-11
0.9,3.10060689308511e-11
0.905,4.60732512920174e-11
0.91,6.82859607025691e-11
0.915,1.00947225930416e-10
0.92,1.4884619911072e-10
0.925,2.18907932697854e-10
0.93,3.21118729426519e-10
0.935,4.6984018384804e-10
0.94,6.85669861616799e-10
0.945,9.98068487894545e-10
0.95,1.44905879157376e-09
0.955,2.09841821198061e-09
0.96,3.03094785778796e-09
0.965,4.36661860330346e-09
0.97,6.27469229153814e-09
0.975,8.99331865827336e-09
0.98,1.28566525468134e-08
0.985,1.8332268464468e-08
0.99,2.60726326704182e-08
0.995,3.69857082413737e-08
1,5.23315223462179e-08
1.005,7.38538557556458e-08
1.01,1.03959301959746e-07
1.015,1.45960019056217e-07
1.02,2.04401860153692e-07
1.025,2.85506599767464e-07
1.03,3.9776616265983e-07
1.035,5.52738728363574e-07
1.04,7.66112115030984e-07
1.045,1.05911993121674e-06
1.05,1.46042186814273e-06
1.055,2.00859274397535e-06
1.06,2.75540744303073e-06
1.065,3.77016311806e-06
1.07,5.14534890617097e-06
1.075,7.00406058836125e-06
1.08,9.50966754887281e-06
1.085,1.28783774774224e-05
1.09,1.73955170588362e-05
1.095,2.34365623047525e-05
1.1,3.14942196589641e-05
1.105,4.22131898222787e-05
1.11,5.64346537494325e-05
1.115,7.52530202018264e-05
1.12,0.000100088085015218
1.125,0.00013277649528902
1.13,0.000175687311783513
1.135,0.000231867548329455
1.14,0.000305224870353363
1.145,0.000400756192225137
1.15,0.000524832765925888
1.155,0.000685554546835996
1.16,0.000893189205968813
1.165,0.00116071418560217
1.17,0.00150448372459184
1.175,0.00194504687130749
1.18,0.00250814721871125
1.185,0.00322594050076097
1.19,0.0041384723439082
1.195,0.00529546543012806
1.2,0.00675847315016272
1.205,0.0086034655487426
1.21,0.0109239230142296
1.215,0.013834523750686
1.22,0.0174755225729256
1.225,0.022017930935186
1.23,0.0276696212535615
1.235,0.0346824923768604
1.24,0.0433608473112917
1.245,0.0540711487598025
1.25,0.0672533323742951
1.255,0.0834338714364311
1.26,0.103240799491714
1.265,0.127420908680505
1.27,0.156859350459388
1.275,0.192601871307516
1.28,0.235879917986312
1.285,0.288138843992013
1.29,0.351069439946582
1.295,0.426642994675686
1.3,0.517150069429086
1.305,0.625243133883404
1.31,0.75398316800395
1.315,0.906890277343215
1.32,1.0879982998136
1.325,1.30191329842125
1.33,1.5538757361103
1.335,1.84982601522327
1.34,2.19647293494362
1.345,2.60136447565351
1.35,3.07296016009318
1.355,3.62070406876198
1.36,4.2550974029802
1.365,4.98776929592408
1.37,5.83154437295319
1.375,6.80050536161455
1.38,7.91004885352922
1.385,9.17693213038925
1.39,10.619308790666
1.395,12.2567507591458
1.4,14.1102541353939
1.405,16.202226247438
1.41,18.5564512313279
1.415,21.1980314637578
1.42,24.1533022414343
1.425,27.4497172346317
1.43,31.1157024499489
1.435,35.180476724126
1.44,39.6738371409567
1.445,44.6259082191778
1.45,50.0668542610618
1.455,56.0265548772683
1.46,62.5342444087954
1.465,69.6181167443067
1.47,77.3048978705406
1.475,85.619389381836
1.48,94.5839870960656
1.485,104.218179859748
1.49,114.538034553579
1.495,125.555674207746
1.5,137.278756979068
1.505,149.709964503149
1.51,162.846508787607
1.515,176.679667330781
1.52,191.194356508815
1.525,206.368753449355
1.53,222.173976581748
1.535,238.573834804718
1.54,255.524654730655
1.545,272.975194743621
1.55,290.866653644655
1.555,309.132780457875
1.56,327.700090545867
1.565,346.488191551308
1.57,365.410220868924
1.575,384.37339438923
1.58,403.279664180686
1.585,422.026480632636
1.59,440.507652414724
1.595,458.614295469636
1.6,476.235860196996
1.605,493.261224059634
1.61,509.57983510069
1.615,525.082890350004
1.62,539.664531865862
1.625,553.223042242602
1.63,565.662020848301
1.635,576.891521864122
1.64,586.82913539322
1.645,595.400993498069
1.65,602.542684006336
1.655,608.200056282118
1.66,612.329904867014
1.665,614.900518919758
1.67,615.892087681178
1.675,615.29695471261
1.68,613.119716343866
1.685,609.377162560063
1.69,604.098061390747
1.695,597.322790674323
1.7,589.102823790936
1.705,579.500078525534
1.71,568.586140581668
1.715,556.441375363682
1.72,543.153943435234
1.725,528.818736509294
1.73,513.536251901613
1.735,497.411424069023
1.74,480.552432148767
1.745,463.069502318596
1.75,445.073723322525
1.755,426.675892676182
1.76,407.985409909049
1.765,389.109231756294
1.77,370.150902523864
1.775,351.209670965117
1.78,332.379702976441
1.785,313.749397295494
1.79,295.400809221183
1.795,277.409185220083
1.8,259.842609187612
1.805,242.76175913786
1.81,226.219771242466
1.815,210.262206459439
1.82,194.927113514199
1.825,180.245180737442
1.83,166.23996824103
1.835,152.928211130625
1.84,140.320183912331
1.845,128.42011594443
1.85,117.226647703253
1.855,106.733317758413
1.86,96.9290706674571
1.865,87.7987764806315
1.87,79.3237531682017
1.875,71.4822840192895
1.88,64.2501228859988
1.885,57.6009810332583
1.89,51.5069902779569
1.895,45.9391380367543
1.9,40.8676708286207
1.905,36.2624636763265
1.91,32.0933537040977
1.915,28.3304370226563
1.92,24.9443287169775
1.925,21.906386398326
1.93,19.1888983452511
1.935,16.7652377356247
1.94,14.6099848632575
1.945,12.6990195399824
1.95,11.0095861110254
1.955,9.52033366311851
1.96,8.2113340874616
1.965,7.06408068044406
1.97,6.06146993169915
1.975,5.18776906954504
1.98,4.42857181616604
1.985,3.77074465681419
1.99,3.20236575631059
1.995,2.71265846913231
2,2.29192119270402
2.005,1.93145511279712
2.01,1.62349119006196
2.015,1.36111754181118
2.02,1.13820818661974
2.025,0.949353943771185
2.03,0.78979611704616
2.035,0.655363444179785
2.04,0.542412660314836
2.045,0.447772906263815
2.05,0.368694110266004
2.055,0.302799384741976
2.06,0.248041406589776
2.065,0.202662689906923
2.07,0.165159612584071
2.075,0.134250021828051
2.08,0.108844217113518
2.085,0.0880190911052381
2.09,0.0709951985324492
2.095,0.057116518679475
2.1,0.0458326779998211
2.105,0.0366834043665926
2.11,0.0292849927366811
2.115,0.0233185727253989
2.12,0.0185199810579814
2.125,0.0146710554790717
2.13,0.0115921809496738
2.135,0.0091359334201836
2.14,0.00718168079624069
2.145,0.0056310146427271
2.15,0.00440389949658091
2.155,0.00343543923396442
2.16,0.00267317166278249
2.165,0.00207481332915167
2.17,0.00160638641101854
2.175,0.00124066852526953
2.18,0.000955914318750145
2.185,0.00073480488667855
2.19,0.000563587413300531
2.195,0.000431373016078495
2.2,0.00032956565740278
2.205,0.000251399229783764
2.21,0.000191563584616659
2.215,0.000145903422132431
2.22,0.000111176649494259
2.225,8.48611000296267e-05
2.23,6.50004400858838e-05
2.235,5.00817173931576e-05
2.24,3.8938368102958e-05
2.245,3.06736364440822e-05
2.25,2.46003045662422e-05
2.255,2.01934099907421e-05
2.26,1.70532697992692e-05
2.265,1.48766564973106e-05
2.27,1.34343995291243e-05
2.275,1.2554035071063e-05
2.28,1.21064089103956e-05
2.285,1.19953646929774e-05
2.29,1.21498324821854e-05
2.295,1.2517778676562e-05
2.3,1.30615947539546e-05
2.305,1.37545947270371e-05
2.31,1.45783642844724e-05
2.315,1.55207621826859e-05
2.32,1.65744196662739e-05
2.325,1.77356190625949e-05
2.33,1.90034602631676e-05
2.335,2.03792452155047e-05
2.34,2.18660271204182e-05
2.345,2.34682838110662e-05
2.35,2.51916846141195e-05
2.355,2.70429275189804e-05
2.36,2.90296292264729e-05
2.365,3.11602550204334e-05
2.37,3.34440787217311e-05
2.375,3.58911654915035e-05
2.38,3.85123721403007e-05
2.385,4.13193610202092e-05
2.39,4.43246246415948e-05
2.395,4.75415189519892e-05
2.4,5.09843038083606e-05
2.405,5.46681896161756e-05
2.41,5.86093894376063e-05
2.415,6.28251761159523e-05
2.42,6.73339441455988e-05
2.425,7.21552761530147e-05
2.43,7.73100139565713e-05
2.435,8.28203342504909e-05
2.44,8.87098290177185e-05
2.445,9.50035908230082e-05
2.45,0.000101728303174666
2.455,0.00010891233617396
2.46,0.000116585847697128
2.465,0.000124780890377735
2.47,0.000133531524677794
2.475,0.000142873938355521
2.48,0.000152846572656199
2.485,0.000163490255571017
2.49,0.000174848342527071
2.495,0.000186966864890255
2.5,0.000199894686681723
2.505,0.000213683669928022
2.51,0.000228388849085061
2.515,0.00024406861499682
2.52,0.000260784908871169
2.525,0.000278603426777472
2.53,0.000297593835193763
2.535,0.000317829998155295
2.54,0.000339390216581231
2.545,0.00036235748038208
2.55,0.000386819733977429
2.555,0.000412870155881387
2.56,0.000440607453042156
2.565,0.000470136170652141
2.57,0.000501567018176257
2.575,0.000535017212378335
2.58,0.000570610838159113
2.585,0.000608479228053923
2.59,0.000648761361274252
2.595,0.000691604283214528
2.6,0.000737163546384044
2.605,0.000785603673763924
2.61,0.000837098645630144
2.615,0.000891832410926488
2.62,0.000949999424315289
2.625,0.00101180521007958
2.63,0.00107746695409711
2.635,0.00114721412515573
2.64,0.00122128912692927
2.645,0.00129994798198563
2.65,0.00138346104925132
2.655,0.00147211377641257
2.66,0.0015662074887894
2.665,0.00166606021627781
2.67,0.00177200756001522
2.675,0.00188440360048664
2.68,0.00200362184885229
2.685,0.0021300562433438
2.69,0.00226412219264264
2.695,0.00240625766822439
2.7,0.00255692434772346
2.705,0.00271660881144571
2.71,0.00288582379423187
2.715,0.00306510949495096
2.72,0.00325503494598239
2.725,0.00345619944512566
2.73,0.00366923405245974
2.735,0.00389480315475857
2.74,0.00413360610015603
2.745,0.00438637890584203
2.75,0.00465389604166254
2.755,0.00493697229258787
2.76,0.00523646470310895
2.765,0.00555327460671694
2.77,0.00588834974372048
2.775,0.00624268647075379
2.78,0.00661733206543238
2.785,0.00701338712971511
2.79,0.00743200809563856
2.795,0.00787440983719534
2.8,0.00834186839223796
2.805,0.00883572379840014
2.81,0.0093573830471388
2.815,0.00990832316011523
2.82,0.0104900943922466
2.825,0.0111043235658778
2.83,0.0117527175406388
2.835,0.0124370668236743
2.84,0.0131592493250488
2.845,0.0139212342632543
2.85,0.0147250862258674
2.855,0.0155729693905264
2.86,0.0164671519115196
2.865,0.0174100104774031
2.87,0.0184040350451855
2.875,0.0194518337567459
2.88,0.0205561380432707
2.885,0.0217198079236209
2.89,0.0229458375026642
2.895,0.0242373606757301
2.9,0.0255976570454645
2.905,0.0270301580574857
2.91,0.02853845336136
2.915,0.0301262974035333
2.92,0.0317976162589758
2.925,0.0335565147084037
2.93,0.0354072835680617
2.935,0.0373544072791533
2.94,0.0394025717641182
2.945,0.0415566725570554
2.95,0.0438218232156921
2.955,0.0462033640223954
2.96,0.0487068709818171
2.965,0.0513381651228444
2.97,0.0541033221126191
2.975,0.057008682190459
2.98,0.0600608604295939
2.985,0.0632667573346849
2.99,0.0666335697831647
2.995,0.0701688023184828
3,0.0738802788033885
3.005,0.0777761544414146
3.01,0.0818649281747646
3.015,0.0861554554668169
3.02,0.0906569614774714
3.025,0.0953790546395757
3.03,0.100331740644638
3.035,0.105525436846038
3.04,0.110970987087894
3.045,0.116679676967718
3.05,0.122663249540926
3.055,0.128933921475197
3.06,0.135504399662609
3.065,0.142387898297368
3.07,0.149598156426832
3.075,0.15714945598343
3.08,0.165056640304904
3.085,0.173335133150149
3.09,0.182000958217776
3.095,0.19107075917429
3.1,0.200561820198584
3.105,0.210492087049218
3.11,0.220880188660699
3.115,0.231745459274693
3.12,0.243107961111825
3.125,0.254988507589406
3.13,0.267408687090073
3.135,0.280390887285992
3.14,0.293958320022864
3.145,0.308135046767598
3.15,0.322946004623063
3.155,0.338417032912865
3.16,0.354574900338642
3.165,0.371447332711844
3.17,0.389063041261406
3.175,0.407451751518221
3.18,0.426644232776647
3.185,0.446672328132739
3.19,0.467568985098186
3.195,0.489368286788304
3.2,0.512105483681685
3.205,0.535817025948404
3.21,0.56054059634287
3.215,0.586315143656666
3.22,0.613180916725831
3.225,0.641179498986209
3.23,0.670353843569602
3.235,0.700748308932498
3.24,0.732408695008237
3.245,0.76538227987243
3.25,0.79971785691049
3.255,0.835465772474993
3.26,0.872677964019604
3.265,0.911407998695055
3.27,0.951711112391643
3.275,0.993644249211413
3.28,1.03726610135207
3.285,1.08263714938334
3.29,1.12981970289523
3.295,1.17887794149646
3.3,1.22987795613974
3.305,1.28288779074943
3.31,1.33797748412567
3.315,1.39521911209745
3.32,1.45468682989603
3.325,1.51645691471817
3.33,1.5806078084475
3.335,1.64722016050059
3.34,1.7163768707629
3.345,1.78816313257809
3.35,1.86266647575256
3.355,1.93997680953562
3.36,2.02018646553386
3.365,2.10339024051683
3.37,2.18968543906924
3.375,2.27917191604355
3.38,2.37195211876462
3.385,2.46813112893698
3.39,2.56781670420312
3.395,2.67111931929963
3.4,2.77815220675635
3.405,2.88903139708197
3.41,3.00387575837759
3.415,3.12280703531848
3.42,3.24594988744192
3.425,3.37343192667805
3.43,3.50538375405832
3.435,3.64193899553483
3.44,3.78323433684209
3.445,3.92940955733104
3.45,4.0806075627037
3.455,4.23697441657504
3.46,4.39865937078724
3.465,4.56581489439997
3.47,4.73859670127883
3.475,4.91716377620251
3.48,5.10167839940818
3.485,5.29230616949266
3.49,5.48921602458648
3.495,5.69258026171563
3.5,5.90257455426576
3.505,6.11937796746134
3.51,6.34317297177219
3.515,6.57414545415807
3.52,6.81248472706171
3.525,7.05838353505916
3.53,7.31203805907633
3.535,7.57364791807924
3.54,7.84341616814535
3.545,8.12154929882285
3.55,8.40825722668397
3.555,8.70375328597873
3.56,9.00825421629484
3.565,9.3219801471298
3.57,9.6451545792808
3.575,9.97800436295895
3.58,10.3207596725337
3.585,10.6736539778149
3.59,11.0369240117789
3.595,11.410809734648
3.6,11.7955542942309
3.605,12.1914039824344
3.61,12.5986081878584
3.615,13.0174193443838
3.62,13.4480928756701
3.625,13.890887135475
3.63,14.3460633437154
3.635,14.8138855181863
3.64,15.2946204018605
3.645,15.7885373856903
3.65,16.2959084268387
3.655,16.8170079622659
3.66,17.3521128176037
3.665,17.9015021112499
3.67,18.4654571536209
3.675,19.0442613415012
3.68,19.6382000474341
3.685,20.2475605040997
3.69,20.8726316836321
3.695,21.5137041718294
3.7,22.1710700372169
3.705,22.8450226949249
3.71,23.5358567653505
3.715,24.2438679275749
3.72,24.9693527675143
3.725,25.7126086207855
3.73,26.4739334102758
3.735,27.2536254784074
3.74,28.0519834140982
3.745,28.8693058744202
3.75,29.7058914009674
3.755,30.5620382309491
3.76,31.4380441030308
3.765,32.3342060579515
3.77,33.2508202339531
3.775,34.1881816570632
3.78,35.1465840262803
3.785,36.126319493718
3.79,37.1276784397692
3.795,38.1509492433615
3.8,39.1964180473808
3.805,40.2643685193472
3.81,41.3550816074359
3.815,42.4688352919421
3.82,43.6059043322983
3.825,44.7665600097579
3.83,45.9510698658687
3.835,47.1596974368674
3.84,48.3927019841326
3.845,49.6503382208446
3.85,50.9328560350056
3.855,52.2405002089827
3.86,53.5735101357458
3.865,54.9321195319774
3.87,56.316556148243
3.875,57.7270414764136
3.88,59.1637904545473
3.885,60.6270111694363
3.89,62.1169045570403
3.895,63.6336641010313
3.9,65.1774755296832
3.905,66.7485165113488
3.91,68.3469563487711
3.915,69.9729556724868
3.92,71.6266661335835
3.925,73.3082300960821
3.93,75.0177803292208
3.935,76.7554396999246
3.94,78.5213208657506
3.945,80.3155259686059
3.95,82.13814632954
3.955,83.9892621449205
3.96,85.8689421843065
3.965,87.7772434903375
3.97,89.7142110809644
3.975,91.6798776543492
3.98,93.6742632967686
3.985,95.6973751938586
3.99,97.749207345541
3.995,99.8297402849777
4,101.9389408019
4.005,104.076761670663
4.01,106.243141383383
4.015,108.438003888501
4.02,110.661258335148
4.025,112.912798823648
4.03,115.192504162538
4.035,117.500237632447
4.04,119.835846757204
4.045,122.199163082532
4.05,124.590001962672
4.055,127.00816235532
4.06,129.453426625199
4.065,131.925560356645
4.07,134.424312175533
4.075,136.949413580909
4.08,139.500578786652
4.085,142.077504573512
4.09,144.679870151857
